#Wave		#Intensity
3203.346680	25259.566406
3202.517578	23924.775391
3201.688477	24062.375000
3200.858398	23849.429688
3200.029297	23990.072266
3199.199219	24059.974609
3198.370117	23797.962891
3197.540039	23950.832031
3196.709961	23695.064453
3195.879883	23731.179688
3195.048828	23450.958984
3194.218750	23640.630859
3193.387695	23314.462891
3192.557617	23497.955078
3191.726563	23454.271484
3190.895508	23683.710938
3190.064453	23526.490234
3189.233398	23317.169922
3188.401367	23209.132813
3187.570313	23122.595703
3186.738281	23425.488281
3185.907227	23053.833984
3185.075195	23126.751953
3184.243164	23012.699219
3183.411133	23131.560547
3182.578125	22787.765625
3181.746094	22787.158203
3180.913086	22976.439453
3180.080078	22412.353516
3179.248047	22589.384766
3178.415039	22340.849609
3177.581055	22523.955078
3176.748047	22569.291016
3175.915039	22883.871094
3175.081055	22626.267578
3174.248047	22429.919922
3173.414063	22652.619141
3172.580078	22795.744141
3171.746094	22507.746094
3170.912109	22623.333984
3170.077148	22937.546875
3169.243164	22747.447266
3168.408203	23012.650391
3167.573242	23167.794922
3166.738281	23295.400391
3165.903320	23120.632813
3165.068359	23348.962891
3164.233398	24074.833984
3163.397461	23692.462891
3162.562500	23655.076172
3161.726563	24154.744141
3160.890625	24044.070313
3160.054688	23951.736328
3159.218750	23713.035156
3158.382813	23870.833984
3157.545898	23781.619141
3156.709961	23841.804688
3155.873047	23414.298828
3155.036133	23261.203125
3154.199219	23379.333984
3153.362305	22818.062500
3152.525391	22841.800781
3151.687500	23069.578125
3150.850586	22770.496094
3150.012695	23077.367188
3149.174805	23031.033203
3148.336914	23012.103516
3147.499023	23130.117188
3146.661133	22639.583984
3145.823242	23098.328125
3144.984375	23176.728516
3144.145508	22801.984375
3143.307617	23500.685547
3142.468750	23107.765625
3141.629883	22629.865234
3140.790039	22832.878906
3139.951172	23020.632813
3139.112305	22962.236328
3138.272461	23298.751953
3137.432617	23629.085938
3136.592773	23412.710938
3135.752930	23399.830078
3134.913086	23068.205078
3134.073242	23170.718750
3133.232422	23579.707031
3132.392578	23648.728516
3131.551758	23532.667969
3130.710938	23562.242188
3129.870117	23740.410156
3129.029297	23909.423828
3128.188477	23699.408203
3127.346680	23989.625000
3126.505859	23828.156250
3125.664063	24048.560547
3124.822266	23702.314453
3123.980469	24068.072266
3123.138672	23612.894531
3122.296875	23990.662109
3121.455078	23944.406250
3120.612305	24200.902344
3119.769531	23773.236328
3118.927734	24026.648438
3118.084961	23986.464844
3117.242188	23970.496094
3116.398438	23884.958984
3115.555664	24286.386719
3114.712891	24327.832031
3113.869141	24178.783203
3113.025391	24295.806641
3112.181641	24104.494141
3111.337891	24354.458984
3110.494141	24389.812500
3109.650391	24567.142578
3108.805664	24270.189453
3107.961914	24692.105469
3107.117188	24926.673828
3106.272461	24823.025391
3105.427734	25163.144531
3104.583008	25125.888672
3103.737305	25103.732422
3102.892578	25386.314453
3102.046875	25391.271484
3101.202148	25866.750000
3100.356445	26079.710938
3099.510742	26150.884766
3098.665039	26837.041016
3097.818359	26633.773438
3096.972656	27497.439453
3096.125977	28189.070313
3095.280273	28503.878906
3094.433594	29936.146484
3093.586914	30777.636719
3092.740234	32326.513672
3091.892578	33769.511719
3091.045898	35784.011719
3090.198242	38014.570313
3089.351563	40205.285156
3088.503906	42651.050781
3087.656250	43877.621094
3086.808594	44697.722656
3085.960938	44756.679688
3085.112305	44496.878906
3084.264648	44113.894531
3083.416016	42913.406250
3082.567383	41466.851563
3081.718750	40264.167969
3080.870117	39149.003906
3080.021484	38277.527344
3079.172852	37983.011719
3078.323242	37274.167969
3077.473633	37000.925781
3076.625000	36850.855469
3075.775391	36721.847656
3074.925781	37220.113281
3074.075195	36950.054688
3073.225586	37622.132813
3072.375977	38042.019531
3071.525391	38989.632813
3070.674805	40296.781250
3069.824219	41873.351563
3068.973633	44258.800781
3068.123047	47809.421875
3067.272461	51769.449219
3066.420898	57978.425781
3065.570313	64808.523438
3064.718750	72439.171875
3063.867188	78201.554688
3063.015625	80865.906250
3062.164063	80367.851563
3061.311523	77391.421875
3060.459961	74260.312500
3059.607422	71243.929688
3058.755859	71929.562500
3057.903320	73249.164063
3057.050781	77427.718750
3056.197266	80292.093750
3055.344727	82381.132813
3054.492188	81817.765625
3053.638672	78068.242188
3052.785156	73300.820313
3051.932617	66344.664063
3051.079102	61502.988281
3050.224609	56979.511719
3049.371094	53843.296875
3048.517578	51744.292969
3047.663086	51085.066406
3046.808594	51820.136719
3045.955078	52605.714844
3045.100586	54623.523438
3044.245117	56792.855469
3043.390625	58445.375000
3042.536133	58435.945313
3041.680664	57510.945313
3040.825195	55545.582031
3039.970703	53050.171875
3039.115234	50937.117188
3038.258789	48547.566406
3037.403320	47326.906250
3036.547852	46249.656250
3035.691406	45890.675781
3034.835938	45594.359375
3033.979492	45756.746094
3033.123047	46032.226563
3032.266602	47516.285156
3031.409180	48559.335938
3030.552734	49396.703125
3029.695313	51260.371094
3028.838867	51695.390625
3027.981445	53210.050781
3027.124023	53718.964844
3026.266602	53192.878906
3025.409180	52247.738281
3024.550781	50553.785156
3023.693359	49327.011719
3022.834961	47640.015625
3021.976563	46271.488281
3021.118164	45812.460938
3020.259766	45169.417969
3019.401367	45372.984375
3018.541992	45843.726563
3017.683594	46988.246094
3016.824219	48165.046875
3015.964844	49635.292969
3015.106445	50630.269531
3014.246094	51120.542969
3013.386719	50518.996094
3012.527344	50300.253906
3011.666992	48954.687500
3010.807617	48107.679688
3009.947266	47554.437500
3009.086914	46630.859375
3008.226563	46898.945313
3007.366211	46885.445313
3006.504883	48246.617188
3005.644531	49648.816406
3004.783203	52448.480469
3003.921875	55143.593750
3003.060547	58675.722656
3002.199219	61336.394531
3001.337891	63191.144531
3000.476563	62370.097656
2999.614258	60031.437500
2998.751953	56519.070313
2997.890625	52410.347656
2997.028320	48589.816406
2996.166016	45104.648438
2995.302734	43039.691406
2994.440430	40440.371094
2993.577148	39071.367188
2992.714844	38214.019531
2991.851563	37401.261719
2990.988281	37117.542969
2990.125000	37061.335938
2989.261719	36627.156250
2988.397461	36523.804688
2987.534180	36010.136719
2986.669922	36382.132813
2985.805664	36609.402344
2984.941406	36721.515625
2984.077148	37146.320313
2983.212891	38391.015625
2982.348633	39184.066406
2981.483398	40354.308594
2980.619141	41975.265625
2979.753906	43218.371094
2978.888672	44101.496094
2978.023438	46195.507813
2977.158203	47982.414063
2976.291992	49636.175781
2975.426758	51960.964844
2974.560547	55421.769531
2973.694336	59046.347656
2972.828125	63002.429688
2971.961914	66074.164063
2971.095703	70154.382813
2970.229492	72511.851563
2969.362305	73603.437500
2968.495117	74332.843750
2967.628906	75400.250000
2966.761719	76664.335938
2965.894531	79836.226563
2965.026367	83827.281250
2964.159180	89271.992188
2963.291016	96066.796875
2962.423828	102104.250000
2961.555664	107023.359375
2960.687500	110595.554688
2959.819336	112962.453125
2958.951172	114045.367188
2958.082031	112658.781250
2957.213867	111049.539063
2956.344727	109206.015625
2955.475586	108419.523438
2954.606445	106371.632813
2953.737305	105964.273438
2952.868164	106334.320313
2951.999023	107586.968750
2951.128906	109683.679688
2950.258789	110903.132813
2949.388672	112471.000000
2948.519531	113223.609375
2947.648438	114409.656250
2946.778320	114681.218750
2945.908203	113710.648438
2945.037109	111334.546875
2944.166992	109301.820313
2943.295898	102784.203125
2942.424805	95885.187500
2941.553711	88382.523438
2940.681641	80528.179688
2939.810547	73917.000000
2938.938477	67644.390625
2938.067383	63769.437500
2937.195313	60044.894531
2936.323242	56777.714844
2935.451172	54417.921875
2934.578125	52389.207031
2933.706055	51600.375000
2932.833008	50557.562500
2931.960938	49082.667969
2931.087891	48493.394531
2930.214844	48710.460938
2929.341797	49491.078125
2928.467773	50499.191406
2927.594727	52417.832031
2926.720703	54006.011719
2925.847656	56629.726563
2924.973633	58852.832031
2924.099609	60010.320313
2923.225586	61791.679688
2922.350586	61172.128906
2921.476563	60660.667969
2920.601563	59029.773438
2919.727539	58722.882813
2918.852539	57952.652344
2917.977539	58797.148438
2917.102539	58685.660156
2916.226563	59990.054688
2915.351563	61509.574219
2914.475586	65600.187500
2913.599609	71721.945313
2912.724609	78386.156250
2911.848633	86384.320313
2910.971680	92444.445313
2910.095703	95036.835938
2909.219727	94314.453125
2908.342773	88952.398438
2907.465820	82254.140625
2906.588867	75508.601563
2905.711914	69730.578125
2904.834961	66765.632813
2903.958008	63043.003906
2903.080078	61225.144531
2902.203125	60668.960938
2901.325195	60139.105469
2900.447266	60123.566406
2899.569336	59506.839844
2898.691406	59186.500000
2897.812500	58735.609375
2896.934570	58566.449219
2896.055664	57262.480469
2895.176758	56550.937500
2894.297852	55227.406250
2893.418945	53808.562500
2892.540039	52549.710938
2891.661133	51798.781250
2890.781250	50163.707031
2889.901367	48850.964844
2889.022461	47892.289063
2888.142578	46606.421875
2887.261719	45610.746094
2886.381836	44499.500000
2885.501953	43518.968750
2884.621094	42614.054688
2883.741211	42062.734375
2882.860352	41618.722656
2881.979492	40384.527344
2881.098633	40346.156250
2880.216797	40657.968750
2879.335938	40662.964844
2878.454102	40679.527344
2877.573242	41106.835938
2876.691406	41655.476563
2875.809570	41290.167969
2874.927734	41905.093750
2874.044922	41062.890625
2873.163086	40671.839844
2872.280273	39555.574219
2871.398438	38847.066406
2870.515625	38291.894531
2869.632813	37606.925781
2868.749023	37690.363281
2867.866211	37297.343750
2866.983398	37594.441406
2866.099609	37646.089844
2865.215820	38124.851563
2864.332031	38932.417969
2863.448242	39800.312500
2862.564453	40812.152344
2861.680664	41800.593750
2860.795898	43022.292969
2859.912109	43877.425781
2859.027344	45282.890625
2858.142578	46509.195313
2857.257813	46518.957031
2856.373047	47263.468750
2855.487305	48192.121094
2854.602539	49140.628906
2853.716797	50241.472656
2852.831055	52387.222656
2851.945313	54719.417969
2851.059570	56685.277344
2850.173828	58506.589844
2849.287109	60111.484375
2848.401367	60700.207031
2847.514648	60327.914063
2846.627930	59622.089844
2845.741211	56469.187500
2844.854492	53417.941406
2843.967773	50129.066406
2843.081055	47499.496094
2842.193359	45103.562500
2841.305664	41955.554688
2840.417969	40285.292969
2839.530273	38184.683594
2838.642578	37098.601563
2837.754883	35630.945313
2836.866211	34298.703125
2835.978516	33515.195313
2835.089844	32390.384766
2834.201172	32149.818359
2833.312500	31289.564453
2832.423828	31402.119141
2831.535156	30998.332031
2830.645508	30299.281250
2829.755859	30125.195313
2828.867188	29819.285156
2827.977539	29077.765625
2827.087891	29451.371094
2826.197266	29392.156250
2825.307617	29292.845703
2824.416992	29422.740234
2823.527344	29057.087891
2822.636719	28955.013672
2821.746094	28936.007813
2820.855469	28911.281250
2819.964844	28634.675781
2819.073242	28927.669922
2818.182617	28596.785156
2817.291016	28789.556641
2816.399414	28578.939453
2815.507813	28714.449219
2814.616211	28847.054688
2813.724609	28973.898438
2812.832031	28829.132813
2811.940430	29107.417969
2811.047852	29036.976563
2810.155273	29203.705078
2809.262695	28970.431641
2808.370117	29214.236328
2807.476563	28843.955078
2806.583984	28773.607422
2805.690430	28754.669922
2804.796875	28849.916016
2803.903320	29176.304688
2803.009766	29299.984375
2802.116211	28693.240234
2801.222656	29236.289063
2800.328125	29031.902344
2799.434570	28973.015625
2798.540039	28934.105469
2797.645508	28940.818359
2796.750977	29004.535156
2795.855469	28546.712891
2794.960938	28573.427734
2794.065430	28648.566406
2793.170898	28606.894531
2792.275391	28647.824219
2791.379883	28347.039063
2790.484375	28308.279297
2789.587891	28249.605469
2788.692383	28458.486328
2787.795898	28226.220703
2786.900391	28378.130859
2786.003906	28168.708984
2785.107422	28570.875000
2784.209961	28031.603516
2783.313477	28484.841797
2782.416992	28440.423828
2781.519531	28447.181641
2780.622070	28456.781250
2779.724609	28446.484375
2778.827148	28444.712891
2777.929688	28491.232422
2777.032227	28424.128906
2776.133789	27959.492188
2775.235352	27915.210938
2774.336914	28115.074219
2773.438477	27968.601563
2772.540039	28182.580078
2771.641602	28271.642578
2770.743164	27725.207031
2769.843750	28211.417969
2768.944336	27724.724609
2768.044922	28034.972656
2767.145508	27820.630859
2766.246094	28263.988281
2765.346680	28239.566406
2764.446289	27824.099609
2763.546875	27717.589844
2762.646484	27772.583984
2761.746094	27855.880859
2760.845703	27803.222656
2759.945313	28149.806641
2759.043945	28258.478516
2758.143555	28024.625000
2757.242188	27725.757813
2756.340820	27792.000000
2755.439453	27776.173828
2754.538086	27573.664063
2753.636719	27795.445313
2752.735352	27875.769531
2751.833008	27786.429688
2750.930664	27770.615234
2750.028320	27393.031250
2749.125977	27642.917969
2748.223633	27864.466797
2747.321289	28068.996094
2746.417969	27793.287109
2745.515625	27650.398438
2744.612305	27727.796875
2743.708984	27672.482422
2742.805664	27402.660156
2741.902344	27474.414063
2740.998047	27230.105469
2740.094727	27598.099609
2739.190430	27441.296875
2738.286133	27614.529297
2737.381836	27615.687500
2736.477539	27399.744141
2735.573242	27601.087891
2734.667969	27703.714844
2733.763672	27766.853516
2732.858398	27689.087891
2731.953125	27191.583984
2731.047852	27570.248047
2730.142578	27686.875000
2729.237305	27583.826172
2728.331055	27568.087891
2727.425781	27729.693359
2726.519531	27697.048828
2725.613281	27695.367188
2724.707031	27434.839844
2723.800781	27782.021484
2722.893555	27830.953125
2721.987305	27646.457031
2721.080078	27715.072266
2720.172852	28123.828125
2719.265625	27751.048828
2718.358398	27870.199219
2717.451172	27584.685547
2716.542969	27583.017578
2715.635742	27873.482422
2714.727539	27765.041016
2713.819336	27757.724609
2712.911133	27685.835938
2712.002930	27869.419922
2711.094727	27443.890625
2710.185547	27894.046875
2709.276367	27732.392578
2708.368164	27736.306641
2707.458984	27728.998047
2706.549805	28206.855469
2705.639648	27846.171875
2704.730469	28116.394531
2703.820313	28347.285156
2702.911133	28362.300781
2702.000977	28528.625000
2701.090820	28260.632813
2700.180664	28572.583984
2699.269531	28318.673828
2698.359375	28143.255859
2697.448242	28298.277344
2696.537109	28206.898438
2695.625977	28252.699219
2694.714844	28200.535156
2693.803711	28271.503906
2692.892578	28230.542969
2691.980469	28262.320313
2691.069336	28252.134766
2690.157227	28230.769531
2689.245117	27717.351563
2688.333008	28288.685547
2687.419922	28437.808594
2686.507813	28117.419922
2685.594727	28548.710938
2684.682617	27862.457031
2683.769531	27994.789063
2682.856445	27791.966797
2681.943359	27988.486328
2681.029297	28031.398438
2680.116211	27926.359375
2679.202148	27952.521484
2678.288086	27694.058594
2677.374023	27720.248047
2676.459961	27629.271484
2675.545898	27440.710938
2674.630859	27595.197266
2673.716797	27426.216797
2672.801758	27366.007813
2671.886719	27141.375000
2670.971680	27585.625000
2670.056641	27269.082031
2669.141602	27203.363281
2668.225586	27385.560547
2667.310547	27214.015625
2666.394531	27348.814453
2665.478516	27166.195313
2664.562500	27415.082031
2663.646484	27196.328125
2662.729492	27088.951172
2661.813477	27017.775391
2660.896484	27255.394531
2659.979492	27531.873047
2659.062500	27368.890625
2658.145508	27520.142578
2657.228516	27107.021484
2656.310547	27611.257813
2655.393555	27050.966797
2654.475586	27141.039063
2653.557617	27533.898438
2652.639648	27529.421875
2651.721680	27263.888672
2650.802734	27170.599609
2649.884766	27471.576172
2648.965820	27347.748047
2648.046875	27545.906250
2647.127930	27358.281250
2646.208984	27262.273438
2645.290039	27199.585938
2644.370117	27339.390625
2643.451172	27465.283203
2642.531250	27582.816406
2641.611328	27373.185547
2640.691406	27002.855469
2639.771484	27195.230469
2638.850586	27415.250000
2637.930664	27211.320313
2637.009766	27461.734375
2636.088867	27562.511719
2635.167969	27173.125000
2634.247070	27517.554688
2633.326172	27579.515625
2632.405273	27384.056641
2631.483398	27504.130859
2630.561523	27419.417969
2629.639648	27669.466797
2628.717773	27772.837891
2627.795898	27724.072266
2626.874023	27935.236328
2625.951172	27853.283203
2625.029297	27387.140625
2624.106445	27614.835938
2623.183594	27917.064453
2622.260742	27697.023438
2621.336914	27899.693359
2620.414063	28245.916016
2619.490234	28152.955078
2618.567383	27687.287109
2617.643555	27829.091797
2616.719727	28324.142578
2615.794922	28432.679688
2614.871094	28033.488281
2613.947266	28150.310547
2613.022461	28167.796875
2612.097656	28372.810547
2611.172852	28313.044922
2610.248047	28222.972656
2609.323242	28121.902344
2608.397461	28365.371094
2607.472656	28572.937500
2606.546875	28678.494141
2605.621094	28282.658203
2604.695313	28578.269531
2603.769531	28741.601563
2602.842773	28436.806641
2601.916992	28701.964844
2600.990234	28457.828125
2600.063477	28877.007813
2599.136719	28247.699219
2598.209961	28540.222656
2597.283203	28428.300781
2596.355469	28418.173828
2595.428711	28053.326172
2594.500977	28642.615234
2593.573242	27953.478516
2592.645508	28363.943359
2591.717773	28180.707031
2590.790039	28079.955078
2589.861328	27916.050781
2588.932617	28131.238281
2588.004883	28170.597656
2587.076172	27767.876953
2586.146484	28010.433594
2585.217773	28030.576172
2584.289063	27628.072266
2583.359375	27626.316406
2582.429688	27841.300781
2581.500000	27573.431641
2580.570313	27527.802734
2579.640625	27375.242188
2578.710938	27346.107422
2577.780273	27566.441406
2576.849609	27260.458984
2575.919922	27524.578125
2574.989258	27481.736328
2574.057617	27496.437500
2573.126953	27533.044922
2572.196289	27260.175781
2571.264648	27455.623047
2570.333008	27084.294922
2569.401367	27380.984375
2568.469727	27444.945313
2567.538086	27303.656250
2566.605469	27315.623047
2565.673828	27163.457031
2564.741211	27309.460938
2563.808594	27428.068359
2562.875977	27311.500000
2561.943359	27550.351563
2561.010742	27431.066406
2560.077148	27410.199219
2559.144531	27113.369141
2558.210938	27425.855469
2557.277344	27314.859375
2556.343750	27105.582031
2555.409180	27412.453125
2554.475586	27533.574219
2553.541016	27387.142578
2552.607422	27240.757813
2551.672852	27792.998047
2550.738281	27504.718750
2549.802734	27663.912109
2548.868164	27433.023438
2547.933594	27502.181641
2546.998047	27265.939453
2546.062500	27247.865234
2545.126953	27118.042969
2544.191406	27402.500000
2543.255859	27101.029297
2542.319336	27148.375000
2541.383789	27375.484375
2540.447266	27164.037109
2539.510742	27132.378906
2538.574219	27204.189453
2537.637695	27050.037109
2536.700195	27045.626953
2535.763672	26916.041016
2534.826172	27072.181641
2533.888672	26901.824219
2532.951172	27264.630859
2532.013672	27388.001953
2531.075195	27021.904297
2530.137695	26971.281250
2529.199219	27222.390625
2528.261719	26940.746094
2527.323242	26887.441406
2526.383789	26959.128906
2525.445313	27294.283203
2524.506836	27007.373047
2523.567383	27008.400391
2522.627930	27109.884766
2521.689453	27146.183594
2520.749023	26913.765625
2519.809570	27264.875000
2518.870117	27249.576172
2517.929688	27269.546875
2516.990234	27075.232422
2516.049805	26870.130859
2515.109375	27345.687500
2514.168945	27099.941406
2513.227539	27244.607422
2512.287109	27101.943359
2511.345703	27249.269531
2510.404297	26757.148438
2509.462891	26915.316406
2508.521484	27309.064453
2507.580078	26949.863281
2506.638672	27408.457031
2505.696289	27209.074219
2504.753906	27293.955078
2503.812500	27622.367188
2502.869141	27341.873047
2501.926758	27515.964844
2500.984375	26878.529297
2500.041016	27374.468750
2499.098633	27383.521484
2498.155273	27460.160156
2497.211914	27631.384766
2496.268555	27086.337891
2495.324219	27019.765625
2494.380859	27401.714844
2493.436523	27137.914063
2492.493164	27298.240234
2491.548828	27164.164063
2490.604492	27205.630859
2489.659180	26944.728516
2488.714844	26913.339844
2487.769531	27332.646484
2486.825195	27395.642578
2485.879883	27331.818359
2484.934570	27125.052734
2483.988281	27282.443359
2483.042969	27313.044922
2482.097656	27408.341797
2481.151367	27120.826172
2480.205078	27534.154297
2479.258789	27370.669922
2478.312500	27584.441406
2477.366211	27375.203125
2476.418945	27505.406250
2475.472656	27253.160156
2474.525391	27259.480469
2473.578125	27292.720703
2472.630859	27223.664063
2471.682617	26861.285156
2470.735352	27090.998047
2469.787109	27199.570313
2468.839844	27082.152344
2467.891602	27182.621094
2466.943359	27062.552734
2465.995117	26955.966797
2465.045898	27258.015625
2464.097656	27124.554688
2463.148438	27101.314453
2462.199219	27188.240234
2461.250000	27299.316406
2460.300781	27477.503906
2459.351563	27209.833984
2458.401367	27285.943359
2457.452148	27254.640625
2456.501953	27185.767578
2455.551758	27468.492188
2454.601563	27166.154297
2453.650391	27124.156250
2452.700195	27272.625000
2451.749023	26981.193359
2450.798828	27298.578125
2449.847656	27157.378906
2448.896484	27303.062500
2447.944336	27529.105469
2446.993164	27136.031250
2446.041016	27316.476563
2445.089844	27245.041016
2444.137695	27422.728516
2443.185547	27386.111328
2442.233398	27183.490234
2441.280273	27152.277344
2440.328125	27343.244141
2439.375000	26889.152344
2438.421875	26999.822266
2437.468750	26992.734375
2436.515625	27087.300781
2435.562500	26954.494141
2434.608398	27006.246094
2433.655273	27074.021484
2432.701172	26981.378906
2431.747070	26883.419922
2430.792969	27076.785156
2429.838867	27227.333984
2428.883789	27465.992188
2427.929688	26660.175781
2426.974609	26701.218750
2426.019531	27014.609375
2425.064453	26823.310547
2424.109375	27091.199219
2423.153320	26790.521484
2422.198242	26954.255859
2421.242188	26944.513672
2420.286133	27041.476563
2419.330078	26887.695313
2418.374023	26693.960938
2417.417969	26961.558594
2416.460938	27213.072266
2415.504883	26968.736328
2414.547852	27038.945313
2413.590820	27276.998047
2412.633789	27288.523438
2411.675781	27044.330078
2410.718750	26784.236328
2409.760742	26806.484375
2408.803711	27129.572266
2407.845703	26936.138672
2406.887695	26979.640625
2405.929688	26919.345703
2404.970703	26473.279297
2404.011719	26750.929688
2403.052734	26706.658203
2402.093750	26606.554688
2401.134766	26551.683594
2400.175781	26387.833984
2399.216797	26880.568359
2398.257813	27131.298828
2397.296875	26629.972656
2396.337891	26490.125000
2395.376953	26557.511719
2394.417969	26741.732422
2393.457031	26469.160156
2392.496094	26401.111328
2391.537109	26489.701172
2390.576172	26432.283203
2389.615234	26841.933594
2388.654297	26460.781250
2387.691406	26461.757813
2386.730469	26136.490234
2385.769531	26325.804688
2384.806641	26271.119141
2383.845703	26319.841797
2382.882813	26424.210938
2381.921875	26178.718750
2380.958984	26550.701172
2379.996094	26514.564453
2379.033203	26438.705078
2378.070313	26328.439453
2377.107422	26485.660156
2376.144531	26841.400391
2375.181641	26614.644531
2374.218750	26589.113281
2373.253906	26216.925781
2372.291016	27112.230469
2371.326172	26748.013672
2370.363281	26407.718750
2369.398438	26591.160156
2368.433594	26581.519531
2367.468750	26244.060547
2366.505859	26501.449219
2365.541016	26740.251953
2364.574219	26638.105469
2363.609375	26662.804688
2362.644531	26449.757813
2361.679688	26717.460938
2360.712891	26504.474609
2359.748047	26360.201172
2358.781250	26287.250000
2357.816406	26288.224609
2356.849609	26381.560547
2355.882813	26295.447266
2354.916016	26560.224609
2353.949219	26376.515625
2352.982422	26055.728516
2352.015625	26478.621094
2351.048828	26345.103516
2350.080078	26259.074219
2349.113281	26457.707031
2348.144531	26374.322266
2347.177734	26514.906250
2346.208984	26423.634766
2345.242188	26366.630859
2344.273438	26393.912109
2343.304688	26239.513672
2342.335938	26466.873047
2341.367188	26509.914063
2340.398438	26839.785156
2339.429688	26498.597656
2338.458984	26181.197266
2337.490234	26639.843750
2336.519531	26459.277344
2335.550781	26262.992188
2334.580078	26237.656250
2333.611328	26496.216797
2332.640625	26507.644531
2331.669922	26597.898438
2330.699219	26698.632813
2329.728516	26536.644531
2328.757813	26894.744141
2327.787109	27003.255859
2326.814453	26786.158203
2325.843750	26561.255859
2324.873047	26982.107422
2323.900391	26363.601563
2322.929688	26233.335938
2321.957031	26709.123047
2320.984375	26565.726563
2320.011719	26595.466797
2319.039063	26549.152344
2318.066406	26602.478516
2317.093750	26582.390625
2316.121094	27078.615234
2315.148438	26783.308594
2314.175781	26605.998047
2313.201172	26483.755859
2312.228516	26762.281250
2311.253906	26454.123047
2310.281250	26324.109375
2309.306641	26772.679688
2308.332031	26286.687500
2307.357422	26538.841797
2306.382813	26186.488281
2305.408203	26603.390625
2304.433594	26329.611328
2303.458984	26390.675781
2302.482422	26483.095703
2301.507813	26329.732422
2300.533203	26411.675781
2299.556641	26064.968750
2298.580078	26640.806641
2297.605469	26150.476563
2296.628906	26349.943359
2295.652344	26384.800781
2294.675781	26244.679688
2293.699219	26167.267578
2292.722656	26664.201172
2291.746094	26260.478516
2290.767578	26290.095703
2289.791016	26364.060547
2288.814453	26424.957031
2287.835938	26352.802734
2286.857422	25980.753906
2285.880859	26265.931641
2284.902344	26290.300781
2283.923828	26421.535156
2282.945313	26344.224609
2281.966797	26292.996094
2280.988281	26377.265625
2280.009766	26292.183594
2279.029297	26449.351563
2278.050781	26567.406250
2277.072266	26521.386719
2276.091797	26233.277344
2275.113281	26075.404297
2274.132813	26726.935547
2273.152344	25973.173828
2272.171875	26158.826172
2271.191406	26365.224609
2270.210938	26490.933594
2269.230469	26041.935547
2268.250000	26474.439453
2267.269531	26254.339844
2266.287109	26234.435547
2265.306641	26139.179688
2264.326172	26329.750000
2263.343750	26260.484375
2262.361328	26232.796875
2261.378906	26207.714844
2260.398438	26026.853516
2259.416016	26256.222656
2258.433594	26303.824219
2257.451172	26148.986328
2256.466797	26596.177734
2255.484375	26127.427734
2254.501953	26187.984375
2253.517578	26445.625000
2252.535156	26415.351563
2251.550781	26151.751953
2250.568359	26199.302734
2249.583984	26355.689453
2248.599609	26201.062500
2247.615234	26245.986328
2246.630859	26021.484375
2245.646484	26234.775391
2244.662109	26220.109375
2243.677734	26272.765625
2242.691406	26480.730469
2241.707031	26458.261719
2240.720703	26257.232422
2239.736328	26214.105469
2238.750000	26729.804688
2237.765625	26280.507813
2236.779297	26012.394531
2235.792969	26258.945313
2234.806641	26800.146484
2233.820313	26074.539063
2232.833984	26625.931641
2231.845703	26308.878906
2230.859375	26084.941406
2229.873047	26284.734375
2228.884766	26213.261719
2227.898438	26681.535156
2226.910156	26661.660156
2225.921875	26381.050781
2224.933594	26430.917969
2223.945313	26367.218750
2222.957031	26380.947266
2221.968750	26239.878906
2220.980469	26436.763672
2219.992188	26406.626953
2219.003906	26858.699219
2218.013672	26508.808594
2217.025391	26238.943359
2216.035156	26371.228516
2215.046875	26624.583984
2214.056641	26249.193359
2213.066406	26226.845703
2212.076172	26129.812500
2211.085938	26225.949219
2210.095703	26631.029297
2209.105469	26425.849609
2208.115234	26313.400391
2207.123047	26388.853516
2206.132813	26461.707031
2205.140625	26457.355469
2204.150391	26617.628906
2203.158203	26474.373047
2202.166016	26292.593750
2201.175781	26545.367188
2200.183594	26687.523438
2199.191406	26395.279297
2198.199219	26208.490234
2197.205078	26867.056641
2196.212891	27003.923828
2195.220703	26606.511719
2194.228516	26617.542969
2193.234375	26482.216797
2192.240234	26495.832031
2191.248047	26378.537109
2190.253906	26497.380859
2189.259766	26264.656250
2188.265625	26370.652344
2187.271484	26345.792969
2186.277344	26331.199219
2185.283203	26293.533203
2184.289063	26548.150391
2183.294922	26859.078125
2182.298828	26347.193359
2181.304688	26688.800781
2180.308594	26159.175781
2179.312500	26467.398438
2178.318359	26375.958984
2177.322266	26351.132813
2176.326172	26490.179688
2175.330078	26460.220703
2174.333984	26504.498047
2173.337891	26415.683594
2172.339844	26370.396484
2171.343750	26286.748047
2170.347656	26637.970703
2169.349609	26625.914063
2168.353516	26792.853516
2167.355469	26560.902344
2166.357422	26329.027344
2165.359375	26603.275391
2164.361328	26598.896484
2163.363281	26602.181641
2162.365234	26171.195313
2161.367188	26527.017578
2160.369141	26747.375000
2159.369141	26321.681641
2158.371094	26434.777344
2157.373047	26749.480469
2156.373047	26367.376953
2155.373047	26462.548828
2154.373047	26427.576172
2153.375000	26494.646484
2152.375000	26457.128906
2151.375000	26970.404297
2150.375000	26473.910156
2149.373047	26331.900391
2148.373047	26480.482422
2147.373047	26715.656250
2146.371094	26650.107422
2145.371094	26859.699219
2144.369141	26463.041016
2143.367188	26636.941406
2142.367188	26388.125000
2141.365234	26727.449219
2140.363281	26677.230469
2139.361328	26675.380859
2138.359375	26378.375000
2137.357422	26666.593750
2136.353516	26222.154297
2135.351563	26581.511719
2134.347656	26788.181641
2133.345703	26844.785156
2132.341797	26809.859375
2131.339844	26551.289063
2130.335938	26648.558594
2129.332031	26862.666016
2128.328125	27046.218750
2127.324219	26686.183594
2126.320313	27250.617188
2125.316406	26865.275391
2124.310547	26751.687500
2123.306641	26853.882813
2122.300781	26900.210938
2121.296875	26911.001953
2120.291016	26995.359375
2119.285156	26732.185547
2118.281250	26925.593750
2117.275391	27344.611328
2116.269531	26815.308594
2115.263672	26935.093750
2114.257813	26844.484375
2113.250000	26824.853516
2112.244141	26944.576172
2111.238281	26975.599609
2110.230469	26852.113281
2109.224609	26984.429688
2108.216797	27071.128906
2107.208984	26823.642578
2106.201172	27145.728516
2105.193359	26883.125000
2104.185547	26843.269531
2103.177734	27142.419922
2102.169922	27105.062500
2101.162109	27138.527344
2100.154297	27025.322266
2099.144531	27177.611328
2098.136719	27395.568359
2097.126953	27019.535156
2096.117188	27088.359375
2095.109375	27111.681641
2094.099609	27066.792969
2093.089844	27236.597656
2092.080078	27128.570313
2091.070313	27000.378906
2090.058594	26955.535156
2089.048828	27183.292969
2088.039063	26944.117188
2087.027344	27217.218750
2086.017578	26859.544922
2085.005859	27132.568359
2083.996094	27165.919922
2082.984375	26949.632813
2081.972656	27225.025391
2080.960938	27296.152344
2079.949219	27301.728516
2078.937500	27110.755859
2077.925781	27088.646484
2076.912109	26882.656250
2075.900391	27346.673828
2074.886719	27012.283203
2073.875000	27151.335938
2072.861328	27239.996094
2071.847656	27222.914063
2070.835938	26901.341797
2069.822266	27256.701172
2068.808594	27159.123047
2067.794922	27466.529297
2066.779297	27132.552734
2065.765625	27155.732422
2064.751953	27126.109375
2063.736328	27111.576172
2062.722656	27348.365234
2061.707031	27381.541016
2060.693359	27165.982422
2059.677734	27342.355469
2058.662109	27011.343750
2057.646484	27057.105469
2056.630859	27599.966797
2055.615234	27216.359375
2054.599609	27126.529297
2053.583984	26793.312500
2052.566406	27180.294922
2051.550781	27331.339844
2050.533203	26807.628906
2049.517578	26953.667969
2048.500000	27127.240234
2047.482422	27305.767578
2046.464844	27090.707031
2045.447266	26985.986328
2044.429688	27114.332031
2043.412109	27172.484375
2042.394531	26962.595703
2041.376953	27218.605469
2040.357422	26976.224609
2039.339844	27147.021484
2038.320313	26912.240234
2037.300781	26960.351563
2036.283203	27293.722656
2035.263672	27116.574219
2034.244141	27057.058594
2033.224609	27150.132813
2032.205078	27093.130859
2031.185547	27173.666016
2030.166016	27246.671875
2029.144531	27287.160156
2028.125000	26937.775391
2027.103516	27335.611328
2026.083984	26846.427734
2025.062500	27036.824219
2024.041016	26974.914063
2023.019531	27035.378906
2021.998047	27357.966797
2020.976563	26909.119141
2019.955078	27214.148438
2018.933594	27129.796875
2017.912109	26980.603516
2016.888672	26836.449219
2015.867188	27298.416016
2014.843750	27171.710938
2013.822266	26803.193359
2012.798828	27075.474609
2011.775391	27031.117188
2010.751953	27061.537109
2009.728516	27064.537109
2008.705078	26756.126953
2007.681641	27145.255859
2006.658203	27208.009766
2005.632813	27323.031250
2004.609375	26960.007813
2003.585938	27127.302734
2002.560547	27418.982422
2001.535156	27307.447266
2000.509766	27098.916016
1999.486328	27081.996094
1998.460938	26963.107422
1997.435547	27112.826172
1996.410156	26971.591797
1995.382813	27076.509766
1994.357422	27037.234375
1993.332031	27119.738281
1992.304688	27480.500000
1991.279297	27239.947266
1990.251953	27411.792969
1989.224609	27004.941406
1988.197266	27074.962891
1987.171875	27015.865234
1986.144531	27433.369141
1985.117188	27394.085938
1984.087891	27156.300781
1983.060547	27571.091797
1982.033203	27730.246094
1981.003906	27440.439453
1979.976563	27098.652344
1978.947266	27411.521484
1977.919922	27067.371094
1976.890625	27590.814453
1975.861328	27296.310547
1974.832031	27499.917969
1973.802734	27430.955078
1972.773438	27253.033203
1971.744141	27248.521484
1970.712891	27447.046875
1969.683594	27571.236328
1968.654297	27517.166016
1967.623047	27547.257813
1966.591797	27428.873047
1965.562500	27350.111328
1964.531250	27622.625000
1963.500000	27563.642578
1962.468750	27395.875000
1961.437500	27423.478516
1960.406250	27317.585938
1959.373047	27369.908203
1958.341797	27479.046875
1957.310547	27234.835938
1956.277344	27205.621094
1955.246094	27176.416016
1954.212891	27302.798828
1953.179688	27108.156250
1952.146484	27254.253906
1951.113281	27427.455078
1950.080078	27208.207031
1949.046875	27373.955078
1948.013672	27243.599609
1946.980469	27382.152344
1945.945313	27237.039063
1944.912109	27370.613281
1943.876953	27509.072266
1942.841797	27519.302734
1941.808594	27371.796875
1940.773438	27527.433594
1939.738281	27601.712891
1938.703125	27092.148438
1937.667969	27673.843750
1936.632813	27351.587891
1935.595703	27563.722656
1934.560547	27056.960938
1933.525391	27273.996094
1932.488281	27289.162109
1931.453125	27715.228516
1930.416016	27336.699219
1929.378906	27228.859375
1928.341797	27103.839844
1927.304688	27128.853516
1926.267578	27225.154297
1925.230469	27422.203125
1924.193359	27629.013672
1923.154297	27504.029297
1922.117188	27118.656250
1921.078125	27389.281250
1920.041016	27529.646484
1919.001953	26997.123047
1917.962891	27498.419922
1916.925781	27324.478516
1915.886719	27592.384766
1914.847656	27563.269531
1913.806641	27389.400391
1912.767578	27281.824219
1911.728516	27446.541016
1910.689453	27478.775391
1909.648438	27447.246094
1908.609375	27293.148438
1907.568359	27604.818359
1906.527344	27531.619141
1905.486328	27549.105469
1904.445313	27392.638672
1903.404297	27706.531250
1902.363281	27648.054688
1901.322266	27256.572266
1900.281250	27447.914063
1899.240234	27641.638672
1898.197266	27189.162109
1897.156250	27510.113281
1896.113281	27608.308594
1895.070313	27691.792969
1894.027344	27633.388672
1892.986328	27134.820313
1891.943359	27240.343750
1890.900391	27609.855469
1889.855469	27267.966797
1888.812500	27307.429688
1887.769531	27180.726563
1886.724609	27229.960938
1885.681641	27022.705078
1884.636719	27211.154297
1883.593750	27201.751953
1882.548828	26936.007813
1881.503906	27046.261719
1880.458984	27539.654297
1879.414063	27505.798828
1878.369141	27274.332031
1877.324219	27499.105469
1876.277344	27399.419922
1875.232422	27667.990234
1874.185547	27824.314453
1873.140625	27112.744141
1872.093750	27288.605469
1871.046875	27427.855469
1870.001953	27325.837891
1868.955078	27472.339844
1867.908203	27231.511719
1866.861328	27687.265625
1865.812500	27402.650391
1864.765625	27385.927734
1863.718750	27486.044922
1862.669922	27517.986328
1861.623047	27260.349609
1860.574219	27542.904297
1859.525391	27236.699219
1858.476563	27460.791016
1857.429688	27755.326172
1856.380859	27621.857422
1855.330078	27862.787109
1854.281250	28013.708984
1853.232422	28089.246094
1852.183594	28206.062500
1851.132813	28011.892578
1850.083984	28031.527344
1849.033203	28395.994141
1847.982422	27769.693359
1846.933594	27752.939453
1845.882813	27556.574219
1844.832031	27510.738281
1843.781250	27450.357422
1842.728516	27562.246094
1841.677734	27455.787109
1840.626953	27426.970703
1839.574219	27512.130859
1838.523438	27519.679688
1837.470703	27512.681641
1836.419922	27624.441406
1835.367188	27433.259766
1834.314453	27426.277344
1833.261719	27588.863281
1832.208984	27804.679688
1831.156250	27187.388672
1830.101563	27638.054688
1829.048828	27335.701172
1827.996094	27621.603516
1826.941406	28222.009766
1825.888672	27353.521484
1824.833984	27806.199219
1823.779297	27634.677734
1822.724609	27441.447266
1821.669922	27596.470703
1820.615234	27550.783203
1819.560547	27444.677734
1818.505859	27604.453125
1817.451172	27558.783203
1816.394531	27865.859375
1815.339844	27523.044922
1814.283203	27269.703125
1813.228516	27434.201172
1812.171875	27275.117188
1811.115234	27306.787109
1810.058594	27577.390625
1809.001953	27647.611328
1807.945313	27240.080078
1806.888672	27459.896484
1805.830078	27136.947266
1804.773438	27383.234375
1803.714844	27624.615234
1802.658203	27603.142578
1801.599609	27584.085938
1800.541016	27326.451172
1799.484375	27849.593750
1798.425781	27620.908203
1797.367188	27635.580078
1796.308594	27688.781250
1795.248047	27534.878906
1794.189453	27722.898438
1793.130859	27910.855469
1792.070313	27670.347656
1791.011719	27805.310547
1789.951172	27899.324219
1788.890625	27839.351563
1787.830078	27724.080078
1786.769531	27753.130859
1785.708984	27467.201172
1784.648438	27674.173828
1783.587891	27638.320313
1782.527344	27588.058594
1781.464844	27561.837891
1780.404297	27480.373047
1779.341797	27869.714844
1778.281250	27860.271484
1777.218750	28052.523438
1776.156250	27591.710938
1775.093750	27800.746094
1774.031250	28112.906250
1772.968750	27318.775391
1771.906250	27695.687500
1770.843750	27976.523438
1769.779297	27770.402344
1768.716797	27645.878906
1767.652344	27717.994141
1766.589844	27706.185547
1765.525391	27907.689453
1764.460938	28003.685547
1763.396484	27608.480469
1762.332031	27853.015625
1761.267578	27656.763672
1760.203125	27850.917969
1759.138672	27958.810547
1758.072266	27896.697266
1757.007813	28301.345703
1755.941406	28119.535156
1754.875000	28105.277344
1753.810547	28430.736328
1752.744141	28392.511719
1751.677734	28397.343750
1750.611328	28268.269531
1749.544922	28160.755859
1748.478516	28548.080078
1747.410156	28756.027344
1746.343750	28572.015625
1745.277344	28693.878906
1744.208984	28509.935547
1743.140625	28610.271484
1742.074219	28760.718750
1741.005859	28276.021484
1739.937500	28715.320313
1738.869141	28851.351563
1737.800781	29082.791016
1736.732422	28958.642578
1735.662109	29185.214844
1734.593750	29390.242188
1733.523438	29592.818359
1732.455078	29506.812500
1731.384766	30169.408203
1730.314453	30781.726563
1729.246094	30802.806641
1728.175781	31226.572266
1727.105469	31693.078125
1726.035156	32883.558594
1724.962891	33282.945313
1723.892578	34165.582031
1722.822266	35521.707031
1721.750000	36467.945313
1720.679688	38963.257813
1719.607422	42737.972656
1718.535156	48509.972656
1717.462891	54168.238281
1716.390625	60840.207031
1715.318359	64741.917969
1714.246094	65006.917969
1713.173828	61292.332031
1712.101563	54168.214844
1711.027344	47124.898438
1709.955078	41226.808594
1708.880859	37098.171875
1707.808594	34436.445313
1706.734375	33274.140625
1705.660156	32553.873047
1704.585938	31679.529297
1703.511719	31204.253906
1702.437500	30838.306641
1701.363281	30636.208984
1700.287109	30211.166016
1699.212891	30367.421875
1698.138672	30027.943359
1697.062500	29885.394531
1695.986328	29707.328125
1694.910156	29669.181641
1693.835938	29642.894531
1692.759766	29611.878906
1691.683594	29460.035156
1690.605469	29336.669922
1689.529297	29201.500000
1688.453125	29528.160156
1687.376953	29823.929688
1686.298828	29485.154297
1685.220703	29835.269531
1684.144531	29981.744141
1683.066406	29796.908203
1681.988281	29905.486328
1680.910156	30226.910156
1679.832031	30117.800781
1678.753906	30696.816406
1677.675781	30363.068359
1676.595703	30466.728516
1675.517578	30683.794922
1674.437500	30818.083984
1673.359375	30661.728516
1672.279297	31506.996094
1671.199219	31258.464844
1670.119141	31975.830078
1669.039063	32416.718750
1667.958984	33055.750000
1666.878906	34008.476563
1665.798828	35468.246094
1664.718750	37387.613281
1663.636719	40101.339844
1662.556641	42797.644531
1661.474609	45759.531250
1660.392578	47899.890625
1659.310547	48749.996094
1658.228516	47624.593750
1657.146484	45542.757813
1656.064453	42596.859375
1654.982422	39809.789063
1653.900391	37567.769531
1652.818359	35342.984375
1651.734375	34157.363281
1650.652344	33325.289063
1649.568359	32691.218750
1648.484375	32210.339844
1647.400391	32169.656250
1646.316406	31936.060547
1645.232422	31323.812500
1644.148438	31669.013672
1643.064453	31254.544922
1641.980469	31348.066406
1640.894531	30851.511719
1639.810547	31222.410156
1638.724609	31485.083984
1637.640625	31804.060547
1636.554688	31925.595703
1635.468750	32364.177734
1634.382813	32321.189453
1633.296875	32923.917969
1632.210938	33594.523438
1631.125000	34328.281250
1630.037109	34911.593750
1628.951172	36203.335938
1627.863281	37651.832031
1626.777344	39240.578125
1625.689453	40437.132813
1624.601563	41818.531250
1623.513672	43213.535156
1622.425781	44230.667969
1621.337891	45209.964844
1620.250000	46739.605469
1619.162109	48868.519531
1618.074219	51610.457031
1616.984375	55185.277344
1615.896484	57803.468750
1614.806641	58720.964844
1613.716797	57688.132813
1612.626953	54837.031250
1611.539063	52167.074219
1610.449219	50286.519531
1609.357422	49407.843750
1608.267578	49869.707031
1607.177734	52384.710938
1606.087891	57089.769531
1604.996094	63048.664063
1603.906250	70265.429688
1602.814453	75514.328125
1601.722656	78261.257813
1600.630859	79491.039063
1599.539063	78837.695313
1598.447266	77703.460938
1597.355469	75679.937500
1596.263672	71109.953125
1595.171875	65911.226563
1594.078125	60352.488281
1592.986328	53843.535156
1591.892578	48932.617188
1590.800781	44265.949219
1589.707031	41746.601563
1588.613281	40044.273438
1587.519531	38764.531250
1586.425781	38662.457031
1585.332031	39040.554688
1584.236328	39994.132813
1583.142578	41147.769531
1582.048828	42151.921875
1580.953125	41888.644531
1579.857422	40838.308594
1578.763672	39117.730469
1577.667969	36876.250000
1576.572266	34763.539063
1575.476563	33673.207031
1574.380859	32715.869141
1573.285156	32172.964844
1572.187500	31860.525391
1571.091797	31085.375000
1569.996094	30668.582031
1568.898438	30358.875000
1567.800781	30263.126953
1566.705078	30179.031250
1565.607422	29813.787109
1564.509766	30031.830078
1563.412109	29836.308594
1562.314453	29612.982422
1561.214844	29554.603516
1560.117188	29756.287109
1559.019531	29602.726563
1557.919922	29579.191406
1556.822266	30040.677734
1555.722656	30195.736328
1554.623047	30650.001953
1553.523438	30772.431641
1552.423828	31168.470703
1551.324219	31302.361328
1550.224609	31818.728516
1549.125000	32015.046875
1548.023438	31724.619141
1546.923828	31865.275391
1545.822266	31419.746094
1544.722656	30941.935547
1543.621094	30228.054688
1542.519531	29917.326172
1541.417969	29574.285156
1540.316406	29495.248047
1539.214844	29166.279297
1538.113281	29147.500000
1537.011719	29216.642578
1535.908203	28952.654297
1534.806641	29403.427734
1533.703125	29347.617188
1532.599609	29673.318359
1531.498047	29719.193359
1530.394531	30148.730469
1529.291016	29868.667969
1528.187500	29704.226563
1527.083984	29338.855469
1525.978516	29398.601563
1524.875000	28906.386719
1523.771484	28977.728516
1522.666016	28795.101563
1521.560547	28845.662109
1520.457031	28880.048828
1519.351563	28559.080078
1518.246094	28551.976563
1517.140625	28604.847656
1516.035156	28879.099609
1514.929688	28901.919922
1513.822266	28678.042969
1512.716797	29012.074219
1511.609375	28728.330078
1510.503906	29096.804688
1509.396484	29287.751953
1508.289063	29561.560547
1507.181641	29266.394531
1506.074219	29441.093750
1504.966797	29390.097656
1503.859375	29228.623047
1502.751953	29226.011719
1501.644531	29129.050781
1500.535156	29305.921875
1499.427734	29248.085938
1498.318359	28895.857422
1497.208984	29321.042969
1496.099609	29575.935547
1494.992188	29290.496094
1493.882813	29310.855469
1492.771484	29303.630859
1491.662109	29153.945313
1490.552734	29215.667969
1489.443359	28831.751953
1488.332031	28735.041016
1487.220703	28966.718750
1486.111328	28780.478516
1485.000000	29097.000000
1483.888672	29108.171875
1482.777344	29064.267578
1481.666016	29206.214844
1480.554688	29419.222656
1479.443359	29879.857422
1478.330078	30202.748047
1477.218750	30206.839844
1476.105469	31320.425781
1474.994141	32096.718750
1473.880859	33191.281250
1472.767578	34885.765625
1471.654297	36543.023438
1470.541016	38440.218750
1469.427734	40018.460938
1468.314453	40682.597656
1467.199219	40785.636719
1466.085938	40316.417969
1464.972656	40016.707031
1463.857422	39392.183594
1462.742188	39410.718750
1461.626953	38976.351563
1460.513672	39109.296875
1459.398438	40266.582031
1458.283203	42246.503906
1457.166016	44712.632813
1456.050781	48304.644531
1454.935547	51269.343750
1453.818359	53938.324219
1452.703125	54607.671875
1451.585938	55279.078125
1450.468750	54267.316406
1449.351563	52226.207031
1448.234375	50174.371094
1447.117188	48780.542969
1446.000000	48550.976563
1444.882813	48620.375000
1443.765625	50035.652344
1442.646484	52105.042969
1441.529297	54743.839844
1440.410156	57653.070313
1439.291016	59681.371094
1438.173828	59655.363281
1437.054688	56201.917969
1435.935547	51735.699219
1434.816406	46546.539063
1433.695313	42108.503906
1432.576172	39455.125000
1431.457031	38029.929688
1430.335938	36641.632813
1429.216797	35975.363281
1428.095703	34820.011719
1426.974609	33594.515625
1425.853516	32697.033203
1424.732422	31843.072266
1423.611328	31214.552734
1422.490234	30684.021484
1421.369141	30342.371094
1420.246094	30560.023438
1419.125000	30734.421875
1418.001953	31056.462891
1416.880859	31423.833984
1415.757813	32563.423828
1414.634766	34243.179688
1413.511719	36390.164063
1412.388672	38654.480469
1411.265625	41235.847656
1410.142578	43385.101563
1409.019531	44503.359375
1407.894531	43980.812500
1406.771484	42966.164063
1405.646484	41879.277344
1404.521484	41507.101563
1403.396484	40599.949219
1402.271484	40241.714844
1401.146484	39480.140625
1400.021484	38539.789063
1398.896484	37132.988281
1397.771484	36265.839844
1396.644531	36026.417969
1395.519531	35395.281250
1394.392578	35457.238281
1393.267578	35940.273438
1392.140625	36484.257813
1391.013672	38148.339844
1389.886719	39062.867188
1388.759766	40687.484375
1387.632813	42354.535156
1386.505859	44247.183594
1385.376953	45313.828125
1384.250000	46741.855469
1383.121094	47375.953125
1381.992188	48084.421875
1380.865234	47802.878906
1379.736328	46999.511719
1378.607422	46589.480469
1377.478516	45540.394531
1376.349609	44322.296875
1375.218750	43594.562500
1374.089844	42325.277344
1372.960938	41101.562500
1371.830078	40103.933594
1370.699219	39406.726563
1369.570313	38549.582031
1368.439453	37861.894531
1367.308594	37523.988281
1366.177734	36744.257813
1365.046875	37051.417969
1363.916016	36930.207031
1362.783203	37913.328125
1361.652344	39112.429688
1360.519531	41099.640625
1359.388672	43820.500000
1358.255859	46153.070313
1357.123047	48415.046875
1355.990234	49777.957031
1354.857422	49744.789063
1353.724609	49275.011719
1352.591797	48814.390625
1351.458984	47042.257813
1350.324219	46208.750000
1349.191406	45213.589844
1348.056641	45264.417969
1346.921875	45108.382813
1345.789063	45321.058594
1344.654297	45441.515625
1343.519531	45018.105469
1342.384766	42974.882813
1341.248047	41770.269531
1340.113281	39795.660156
1338.978516	37779.054688
1337.841797	35715.976563
1336.707031	34385.437500
1335.570313	33484.054688
1334.433594	32998.144531
1333.296875	32712.091797
1332.160156	32112.060547
1331.023438	32259.158203
1329.886719	32390.505859
1328.750000	32180.984375
1327.613281	32585.808594
1326.474609	32519.779297
1325.337891	32953.542969
1324.199219	32947.968750
1323.060547	33780.296875
1321.921875	34365.941406
1320.783203	35661.347656
1319.644531	37260.843750
1318.505859	39012.046875
1317.367188	41346.894531
1316.226563	44186.761719
1315.087891	48180.328125
1313.947266	52646.859375
1312.808594	57561.507813
1311.667969	62501.332031
1310.527344	65104.882813
1309.386719	65232.492188
1308.246094	62044.882813
1307.105469	56256.726563
1305.964844	50300.691406
1304.822266	44911.953125
1303.681641	41524.406250
1302.541016	38790.207031
1301.398438	37412.468750
1300.255859	36861.335938
1299.113281	36698.828125
1297.970703	37618.917969
1296.828125	38293.207031
1295.685547	39511.707031
1294.542969	42012.566406
1293.400391	45270.960938
1292.255859	47413.167969
1291.113281	50158.921875
1289.968750	50895.050781
1288.824219	50164.230469
1287.681641	47545.992188
1286.537109	44549.828125
1285.392578	41300.699219
1284.246094	38921.402344
1283.101563	37542.894531
1281.957031	36828.425781
1280.810547	36857.812500
1279.666016	37900.019531
1278.519531	39059.832031
1277.375000	40931.332031
1276.228516	42924.566406
1275.082031	46073.863281
1273.935547	49124.230469
1272.789063	52467.093750
1271.642578	56095.640625
1270.494141	58933.796875
1269.347656	59555.035156
1268.199219	59998.281250
1267.052734	57412.976563
1265.904297	53209.082031
1264.755859	49290.910156
1263.607422	44781.125000
1262.458984	41447.441406
1261.310547	38323.562500
1260.162109	36490.332031
1259.013672	34389.195313
1257.863281	33415.945313
1256.714844	32343.193359
1255.564453	31867.474609
1254.414063	31600.380859
1253.265625	31014.080078
1252.115234	31487.689453
1250.964844	31646.378906
1249.812500	31822.746094
1248.662109	31629.003906
1247.511719	32049.011719
1246.361328	31981.554688
1245.208984	32408.003906
1244.056641	32654.943359
1242.906250	33331.308594
1241.753906	33263.675781
1240.601563	32914.988281
1239.449219	33022.261719
1238.296875	32976.835938
1237.144531	32124.011719
1235.990234	31948.261719
1234.837891	32358.574219
1233.683594	32384.039063
1232.531250	31872.320313
1231.376953	32070.253906
1230.222656	31945.482422
1229.068359	32395.212891
1227.914063	32668.062500
1226.759766	32366.552734
1225.605469	32661.396484
1224.451172	33675.937500
1223.294922	34617.281250
1222.140625	36410.289063
1220.984375	38335.101563
1219.828125	41069.031250
1218.673828	42443.078125
1217.517578	44798.203125
1216.361328	45895.476563
1215.205078	46771.882813
1214.046875	47797.898438
1212.890625	49068.234375
1211.734375	50670.921875
1210.576172	52409.675781
1209.419922	53839.406250
1208.261719	55546.191406
1207.103516	55953.003906
1205.945313	56368.488281
1204.787109	56647.328125
1203.628906	56322.933594
1202.470703	55036.871094
1201.310547	53352.957031
1200.152344	50749.964844
1198.992188	47613.320313
1197.833984	45540.031250
1196.673828	43535.613281
1195.513672	42730.121094
1194.353516	42349.160156
1193.193359	41458.421875
1192.033203	39785.679688
1190.873047	37654.300781
1189.712891	35200.726563
1188.550781	34083.378906
1187.390625	32836.847656
1186.228516	32934.460938
1185.066406	33525.976563
1183.904297	35460.558594
1182.742188	37984.804688
1181.580078	38796.761719
1180.417969	38570.792969
1179.255859	36316.011719
1178.093750	33020.308594
1176.929688	30977.726563
1175.767578	28813.070313
1174.603516	28317.187500
1173.439453	27887.216797
1172.275391	28136.652344
1171.113281	28995.037109
1169.947266	29353.716797
1168.783203	30364.906250
1167.619141	30777.968750
1166.455078	31260.949219
1165.289063	31835.699219
1164.125000	32307.390625
1162.958984	33494.453125
1161.792969	34217.296875
1160.626953	35795.183594
1159.460938	36760.152344
1158.294922	38116.207031
1157.128906	38022.273438
1155.962891	37167.656250
1154.796875	34210.808594
1153.628906	31525.931641
1152.462891	28664.994141
1151.294922	27159.392578
1150.126953	25933.867188
1148.958984	25049.417969
1147.791016	24700.187500
1146.623047	24519.164063
1145.455078	24375.304688
1144.287109	24157.298828
1143.117188	24644.107422
1141.949219	24482.845703
1140.779297	25010.873047
1139.609375	25198.521484
1138.441406	25865.789063
1137.271484	26633.109375
1136.101563	28243.683594
1134.931641	30681.828125
1133.759766	33367.535156
1132.589844	36758.167969
1131.419922	39855.773438
1130.248047	41519.347656
1129.078125	42141.550781
1127.906250	41929.734375
1126.734375	41900.828125
1125.562500	41251.687500
1124.390625	40252.441406
1123.218750	38546.476563
1122.046875	36273.371094
1120.875000	33365.992188
1119.701172	31481.591797
1118.529297	29343.464844
1117.355469	28725.482422
1116.181641	27783.884766
1115.007813	27485.800781
1113.833984	27459.394531
1112.660156	27011.583984
1111.486328	26785.453125
1110.312500	26605.000000
1109.138672	26722.048828
1107.962891	26526.470703
1106.789063	26988.582031
1105.613281	27348.544922
1104.437500	27669.328125
1103.261719	27937.941406
1102.085938	27748.824219
1100.910156	27843.847656
1099.734375	27485.693359
1098.558594	27376.955078
1097.380859	27571.691406
1096.205078	27918.054688
1095.027344	29542.636719
1093.851563	31560.931641
1092.673828	34477.402344
1091.496094	38278.593750
1090.318359	40166.617188
1089.140625	41125.285156
1087.962891	41139.917969
1086.783203	38646.363281
1085.605469	36095.234375
1084.427734	33164.222656
1083.248047	31354.638672
1082.068359	29835.460938
1080.888672	29188.183594
1079.708984	28234.142578
1078.529297	27438.212891
1077.349609	26378.896484
1076.169922	25955.207031
1074.990234	25665.607422
1073.808594	25924.753906
1072.628906	25659.011719
1071.447266	26162.068359
1070.265625	26885.166016
1069.085938	27616.648438
1067.904297	28643.552734
1066.722656	30647.601563
1065.539063	33375.871094
1064.357422	35954.371094
1063.175781	38342.195313
1061.992188	39008.433594
1060.810547	38109.199219
1059.626953	36559.273438
1058.443359	34466.753906
1057.259766	33495.484375
1056.076172	32908.046875
1054.892578	33085.531250
1053.708984	34815.828125
1052.525391	35936.121094
1051.339844	36265.859375
1050.156250	36119.746094
1048.970703	35035.273438
1047.787109	34078.132813
1046.601563	32262.839844
1045.416016	31220.451172
1044.230469	31034.449219
1043.044922	31295.808594
1041.859375	31529.125000
1040.671875	31603.281250
1039.486328	30821.960938
1038.298828	30361.107422
1037.113281	29889.667969
1035.925781	29979.085938
1034.738281	30899.710938
1033.550781	31508.626953
1032.363281	33057.792969
1031.175781	33928.042969
1029.988281	36156.683594
1028.798828	40625.054688
1027.611328	46859.957031
1026.421875	56145.539063
1025.232422	60786.234375
1024.044922	59815.066406
1022.855469	52711.714844
1021.666016	42881.648438
1020.476563	34538.242188
1019.287109	29772.435547
1018.095703	27810.998047
1016.906250	26782.177734
1015.714844	26179.970703
1014.525391	25725.744141
1013.333984	25410.857422
1012.142578	25205.265625
1010.951172	25654.757813
1009.759766	26722.615234
1008.568359	28256.591797
1007.376953	31632.128906
1006.183594	40989.597656
1004.992188	61285.675781
1003.798828	93173.367188
1002.607422	0.000000
1001.414063	0.000000
1000.220703	0.000000
999.027344	117489.695313
997.833984	80520.125000
996.640625	51449.980469
995.447266	36654.910156
994.251953	31339.906250
993.058594	30055.626953
991.863281	30586.300781
990.667969	31234.179688
989.474609	31431.566406
988.279297	30999.462891
987.083984	29375.011719
985.888672	27742.585938
984.691406	26255.728516
983.496094	24773.644531
982.300781	24202.345703
981.103516	23524.667969
979.906250	23096.558594
978.710938	23194.880859
977.513672	23120.607422
976.316406	23431.886719
975.119141	23366.117188
973.921875	23589.947266
972.722656	24139.417969
971.525391	24107.615234
970.326172	25210.128906
969.128906	26308.007813
967.929688	27754.408203
966.730469	29581.054688
965.531250	31404.951172
964.332031	33406.832031
963.132813	35352.750000
961.933594	36284.089844
960.734375	36957.949219
959.533203	36881.500000
958.333984	35849.042969
957.132813	34791.449219
955.931641	33252.113281
954.730469	32970.371094
953.529297	32414.851563
952.328125	31957.166016
951.126953	31828.593750
949.925781	30297.447266
948.724609	28446.460938
947.521484	26803.988281
946.318359	25811.066406
945.117188	25204.417969
943.914063	25132.253906
942.710938	25973.742188
941.507813	26992.970703
940.304688	28918.808594
939.101563	30888.476563
937.896484	32357.541016
936.693359	33067.867188
935.488281	32606.914063
934.285156	31100.197266
933.080078	29960.216797
931.875000	28367.693359
930.669922	28295.111328
929.464844	28599.166016
928.259766	29211.966797
927.054688	29634.201172
925.847656	29001.052734
924.642578	28230.687500
923.435547	27274.554688
922.228516	25517.689453
921.023438	24475.705078
919.816406	23533.382813
918.609375	22925.162109
917.402344	22940.240234
916.193359	22699.781250
914.986328	22657.882813
913.777344	22879.880859
912.570313	23000.486328
911.361328	22755.960938
910.152344	22062.087891
908.945313	21765.062500
907.736328	21609.460938
906.527344	21200.841797
905.316406	20977.916016
904.107422	20915.285156
902.898438	21177.281250
901.687500	21727.908203
900.478516	22234.097656
899.267578	23262.580078
898.056641	23690.394531
896.845703	23515.740234
895.634766	22692.605469
894.423828	22364.494141
893.212891	21405.017578
892.000000	20978.324219
890.789063	20436.044922
889.576172	20729.177734
888.363281	20656.203125
887.152344	20730.470703
885.939453	20636.492188
884.726563	21152.240234
883.513672	21623.667969
882.298828	22426.998047
881.085938	23725.962891
879.873047	25600.140625
878.658203	27517.787109
877.443359	28390.957031
876.230469	28533.070313
875.015625	27152.988281
873.800781	25322.062500
872.585938	23726.828125
871.371094	22532.941406
870.154297	21431.779297
868.939453	21323.210938
867.722656	21097.226563
866.507813	21286.523438
865.291016	21519.785156
864.074219	21945.820313
862.857422	21636.046875
861.640625	21039.287109
860.423828	20553.777344
859.207031	20171.080078
857.990234	20165.519531
856.771484	20028.029297
855.554688	20261.179688
854.335938	20079.757813
853.117188	20777.468750
851.898438	21322.173828
850.679688	22293.523438
849.460938	22459.136719
848.242188	23160.138672
847.023438	22509.966797
845.802734	22518.640625
844.583984	21864.619141
843.363281	21724.998047
842.142578	21773.505859
840.921875	21784.386719
839.701172	21542.486328
838.480469	21070.908203
837.259766	20645.437500
836.039063	20850.683594
834.816406	20723.925781
833.595703	21164.949219
832.373047	21140.437500
831.152344	21312.070313
829.929688	21944.693359
828.707031	23240.392578
827.484375	25843.240234
826.261719	29925.625000
825.037109	36458.281250
823.814453	43236.730469
822.591797	48043.425781
821.367188	48547.742188
820.142578	45128.980469
818.917969	39038.949219
817.695313	33423.769531
816.470703	29805.310547
815.244141	28861.246094
814.019531	29747.171875
812.794922	30647.361328
811.568359	31272.570313
810.343750	30451.644531
809.117188	28630.474609
807.890625	26079.941406
806.666016	24472.246094
805.439453	23565.734375
804.210938	23104.369141
802.984375	23329.003906
801.757813	23746.808594
800.531250	24723.339844
799.302734	26453.570313
798.074219	28014.978516
796.847656	29762.732422
795.619141	30639.972656
794.390625	30402.203125
793.162109	29554.332031
791.933594	27548.855469
790.703125	25863.578125
789.474609	24842.677734
788.244141	23720.501953
787.015625	22942.939453
785.785156	22903.738281
784.554688	22485.203125
783.324219	22350.753906
782.093750	22440.150391
780.863281	22693.193359
779.632813	22830.144531
778.400391	23058.177734
777.169922	23799.689453
775.937500	24973.666016
774.707031	26240.392578
773.474609	28895.466797
772.242188	31847.615234
771.009766	36782.925781
769.777344	43143.910156
768.544922	50110.777344
767.310547	58628.261719
766.078125	69996.078125
764.843750	84053.570313
763.609375	99017.703125
762.376953	109085.226563
761.142578	109223.429688
759.908203	99323.851563
758.673828	83720.843750
757.437500	68874.914063
756.203125	59885.562500
754.968750	56464.875000
753.732422	56550.078125
752.496094	56635.246094
751.261719	55139.890625
750.025391	50963.207031
748.789063	45944.359375
747.552734	41496.421875
746.316406	38025.292969
745.078125	34404.867188
743.841797	31428.777344
742.603516	28657.732422
741.367188	26427.486328
740.128906	24554.406250
738.890625	23586.203125
737.652344	22877.818359
736.414063	22651.492188
735.175781	22256.429688
733.935547	22221.710938
732.697266	21619.003906
731.458984	21777.820313
730.218750	22315.119141
728.978516	23016.783203
727.738281	25007.662109
726.498047	28188.390625
725.257813	31787.410156
724.017578	34170.390625
722.777344	34119.277344
721.535156	31785.320313
720.294922	28256.498047
719.052734	25316.355469
717.812500	23067.275391
716.570313	21784.048828
715.328125	20971.402344
714.085938	20481.300781
712.843750	20301.263672
711.599609	19961.236328
710.357422	20156.789063
709.113281	19640.498047
707.871094	19844.242188
706.626953	19846.962891
705.382813	19845.582031
704.138672	20133.224609
702.894531	20029.320313
701.650391	19947.990234
700.406250	19901.517578
699.160156	19928.802734
697.916016	19853.673828
696.669922	19966.958984
695.425781	20115.007813
694.179688	20453.375000
692.933594	20445.744141
691.687500	20800.302734
690.441406	20784.429688
689.193359	20846.292969
687.947266	20889.726563
686.701172	20526.218750
685.453125	20285.505859
684.205078	20061.228516
682.957031	20192.646484
681.710938	19708.945313
680.462891	19574.777344
679.212891	19434.527344
677.964844	19435.250000
676.716797	19186.843750
675.466797	18862.980469
674.218750	18763.773438
672.968750	18617.658203
671.718750	18761.359375
670.468750	18619.375000
669.218750	18683.468750
667.968750	18315.154297
666.718750	18605.626953
665.466797	18637.066406
664.216797	18487.068359
662.964844	18430.875000
661.714844	18268.736328
660.462891	18432.642578
659.210938	18415.191406
657.958984	18428.296875
656.707031	18575.794922
655.455078	18468.742188
654.201172	18630.431641
652.949219	18731.005859
651.695313	18597.523438
650.441406	18504.779297
649.189453	18896.218750
647.935547	18711.927734
646.681641	18775.792969
645.427734	19142.582031
644.171875	18976.636719
642.917969	19109.525391
641.662109	19610.185547
640.408203	19842.476563
639.152344	20237.199219
637.896484	20729.277344
636.640625	21245.552734
635.384766	21580.943359
634.128906	21954.789063
632.873047	21975.339844
631.617188	21937.031250
630.359375	21791.199219
629.103516	21744.820313
627.845703	21850.578125
626.587891	22355.796875
625.330078	23817.853516
624.072266	26536.275391
622.814453	32022.453125
621.556641	37470.250000
620.296875	40817.050781
619.039063	39572.203125
617.779297	34392.312500
616.521484	28736.294922
615.261719	24436.798828
614.001953	21790.708984
612.742188	20730.373047
611.482422	20147.996094
610.220703	19751.970703
608.960938	19898.246094
607.699219	19769.388672
606.439453	19970.210938
605.177734	21133.410156
603.916016	22160.757813
602.654297	23846.675781
601.392578	25515.837891
600.130859	26822.744141
598.869141	26830.210938
597.607422	25940.861328
596.343750	24742.837891
595.080078	22929.390625
593.818359	21962.445313
592.554688	21112.906250
591.291016	20267.695313
590.027344	19991.781250
588.763672	19758.328125
587.498047	19643.958984
586.234375	19793.816406
584.970703	19820.625000
583.705078	20224.412109
582.439453	20321.681641
581.173828	20322.183594
579.908203	20080.890625
578.642578	19912.207031
577.376953	19554.240234
576.111328	19430.011719
574.843750	19426.634766
573.578125	19079.005859
572.310547	19126.011719
571.042969	18885.214844
569.777344	18690.779297
568.509766	18317.361328
567.242188	18430.841797
565.972656	18473.894531
564.705078	18426.447266
563.437500	18746.917969
562.167969	19214.011719
560.898438	20068.810547
559.630859	21552.238281
558.361328	23107.472656
557.091797	23937.044922
555.822266	24157.812500
554.550781	23418.703125
553.281250	22077.570313
552.011719	20481.982422
550.740234	19234.142578
549.468750	18516.464844
548.199219	18162.160156
546.927734	17852.105469
545.656250	17616.361328
544.384766	17340.595703
543.111328	17367.652344
541.839844	17216.300781
540.568359	17369.626953
539.294922	17352.580078
538.021484	17199.304688
536.750000	17346.542969
535.476563	17413.619141
534.203125	17456.644531
532.927734	17395.548828
531.654297	17070.251953
530.380859	17353.470703
529.105469	17168.363281
527.832031	17227.394531
526.556641	17182.390625
525.281250	17367.394531
524.005859	17374.369141
522.730469	17113.443359
521.455078	17474.261719
520.179688	17533.173828
518.902344	17366.271484
517.626953	17535.062500
516.349609	17843.617188
515.074219	18000.283203
513.796875	17987.164063
512.519531	18445.212891
511.242188	18687.521484
509.964844	19121.337891
508.685547	19834.359375
507.408203	20457.353516
506.128906	21489.046875
504.851563	22725.800781
503.572266	23641.083984
502.292969	24330.763672
501.013672	24705.255859
499.734375	25360.626953
498.455078	26294.738281
497.173828	27611.039063
495.894531	29801.341797
494.613281	32269.701172
493.333984	34303.109375
492.052734	34733.136719
490.771484	34030.390625
489.490234	32265.125000
488.208984	29624.935547
486.927734	27429.326172
485.644531	25773.542969
484.363281	24392.791016
483.080078	23909.318359
481.796875	23088.033203
480.515625	22360.458984
479.232422	21496.003906
477.949219	20902.093750
476.666016	20026.273438
475.380859	19595.708984
474.097656	19175.222656
472.812500	18699.283203
471.529297	18584.841797
470.244141	18863.470703
468.958984	19284.898438
467.673828	19714.113281
466.388672	20274.121094
465.103516	20704.996094
463.818359	21530.390625
462.531250	22821.486328
461.246094	24022.912109
459.958984	25562.880859
458.671875	26188.660156
457.384766	25765.986328
456.097656	24461.824219
454.810547	22724.312500
453.523438	21197.337891
452.236328	19821.388672
450.947266	19313.078125
449.660156	18711.908203
448.371094	18750.203125
447.082031	18365.025391
445.792969	18053.185547
444.503906	17658.373047
443.214844	17160.853516
441.925781	17171.699219
440.634766	16970.996094
439.345703	16798.037109
438.054688	16684.427734
436.765625	16993.724609
435.474609	16878.142578
434.183594	16776.429688
432.892578	16992.722656
431.601563	17058.867188
430.308594	17198.035156
429.017578	17009.480469
427.724609	17545.302734
426.433594	17410.029297
425.140625	17825.244141
423.847656	18112.097656
422.554688	18349.544922
421.261719	18979.310547
419.968750	19088.371094
418.673828	19520.667969
417.380859	19854.271484
416.085938	20556.240234
414.792969	21259.931641
413.498047	21549.718750
412.203125	21341.126953
410.908203	21587.474609
409.613281	21119.070313
408.316406	20908.693359
407.021484	20914.878906
405.726563	20535.382813
404.429688	20321.279297
403.132813	20421.980469
401.835938	20884.521484
400.539063	20688.164063
399.242188	21518.140625
397.945313	22310.478516
396.648438	22927.623047
395.349609	24238.195313
394.052734	25072.861328
392.753906	25944.554688
391.455078	27244.087891
390.158203	27702.736328
388.857422	28273.128906
387.558594	28083.667969
386.259766	27972.775391
384.960938	27816.787109
383.660156	26905.521484
382.361328	25941.611328
381.060547	24650.513672
379.759766	23987.347656
378.458984	22997.003906
377.158203	22661.707031
375.857422	22142.302734
374.556641	22011.058594
373.253906	21384.195313
371.953125	21145.392578
370.650391	21302.287109
369.347656	21298.556641
368.044922	21210.642578
366.742188	21056.207031
365.439453	21187.558594
364.136719	21166.238281
362.833984	21266.222656
361.529297	21041.460938
360.226563	21029.953125
358.921875	20942.189453
357.617188	21065.599609
356.312500	21337.521484
355.007813	21642.572266
353.703125	22393.033203
352.398438	23012.332031
351.091797	24004.500000
349.787109	24896.716797
348.480469	25685.128906
347.175781	26256.558594
345.869141	26363.220703
344.562500	25466.708984
343.255859	24792.957031
341.947266	23545.865234
340.640625	22316.763672
339.333984	21460.591797
338.025391	20331.730469
336.716797	19823.228516
335.410156	19357.787109
334.101563	18724.902344
332.792969	18441.029297
331.482422	18122.187500
330.173828	17906.693359
328.865234	18094.410156
327.554688	17888.730469
326.246094	17858.337891
324.935547	18131.609375
323.625000	18330.830078
322.314453	18454.091797
321.003906	18978.078125
319.693359	19340.433594
318.380859	20132.460938
317.070313	20928.097656
315.757813	21507.658203
314.447266	22273.617188
313.134766	22701.148438
311.822266	22757.402344
310.509766	22359.031250
309.197266	22265.757813
307.884766	22106.486328
306.570313	21714.261719
305.257813	21840.523438
303.943359	22209.371094
302.628906	22263.693359
301.314453	22944.732422
300.000000	23350.048828
298.685547	24325.486328
297.371094	25159.009766
296.056641	26048.468750
294.740234	26834.867188
293.425781	26531.654297
292.109375	25945.603516
290.792969	25301.628906
289.476563	24200.677734
288.160156	22805.695313
286.843750	21769.474609
285.527344	20987.269531
284.208984	20571.228516
282.892578	19994.679688
281.574219	20078.253906
280.255859	20115.361328
278.939453	19912.566406
277.621094	20174.058594
276.300781	20483.804688
274.982422	21271.029297
273.664063	22469.750000
272.343750	23544.345703
271.025391	24806.019531
269.705078	25964.841797
268.384766	26877.910156
267.064453	27433.326172
265.744141	27324.220703
264.423828	27568.496094
263.103516	27376.392578
261.781250	27470.017578
260.460938	27264.488281
259.138672	27317.578125
257.816406	27357.146484
256.494141	27909.759766
255.171875	28682.023438
253.849609	29421.234375
252.527344	30100.423828
251.205078	31606.248047
249.880859	32928.464844
248.558594	34230.949219
247.234375	36243.828125
245.910156	38556.464844
244.585938	40831.695313
243.261719	43764.617188
241.937500	47114.246094
240.611328	50539.683594
239.287109	54383.433594
237.960938	57996.863281
236.636719	60872.238281
235.310547	63296.527344
233.984375	64710.363281
232.658203	64154.847656
231.332031	62432.652344
230.003906	59678.933594
228.677734	56178.644531
227.351563	53367.425781
226.023438	49652.398438
224.695313	47605.824219
223.367188	45627.179688
222.039063	43858.507813
220.710938	42670.195313
219.382813	41808.582031
218.054688	41496.105469
216.724609	41252.804688
215.394531	41454.632813
214.066406	41928.746094
212.736328	42327.898438
211.406250	42433.562500
210.076172	43338.562500
208.746094	44116.742188
207.414063	44929.136719
206.083984	44892.484375
204.751953	45009.089844
203.421875	44279.105469
202.089844	43715.972656
200.757813	42952.003906
199.425781	42580.726563
198.093750	42098.574219
196.759766	41605.105469
195.427734	41339.484375
194.095703	40940.050781
192.761719	41535.296875
191.427734	41510.765625
190.093750	41637.281250
188.759766	42060.042969
187.425781	41821.367188
186.091797	42540.132813
184.757813	42435.195313
183.421875	43304.500000
182.085938	43705.578125
180.751953	45105.199219
179.416016	46187.402344
178.080078	47496.371094
176.744141	48967.105469
175.408203	50351.449219
174.070313	51456.753906
172.734375	52737.160156
171.396484	52973.886719
170.060547	53220.058594
168.722656	53178.257813
167.384766	53191.750000
166.046875	54104.789063
164.708984	55150.890625
163.369141	57423.546875
162.031250	59470.628906
160.691406	61964.539063
159.353516	64880.292969
158.013672	66626.070313
156.673828	68986.046875
155.333984	69927.351563
153.994141	71210.820313
152.654297	71767.093750
151.312500	70428.632813
149.972656	67913.421875
148.630859	65387.691406
147.289063	63461.707031
145.947266	61926.062500
144.605469	60674.125000
143.263672	61446.261719
141.921875	62537.289063
140.580078	64752.406250
139.236328	67768.164063
137.894531	72487.968750
136.550781	78153.421875
135.207031	85555.546875
133.863281	92981.617188
132.519531	100674.500000
131.175781	106778.679688
129.832031	0.000000
128.486328	0.000000
127.142578	0.000000
125.796875	0.000000
124.451172	0.000000
123.105469	0.000000
121.759766	0.000000
120.414063	0.000000
119.068359	0.000000
117.720703	0.000000
116.375000	0.000000
115.027344	0.000000
113.679688	0.000000
112.332031	0.000000
110.984375	0.000000
109.636719	96176.546875
108.289063	80767.203125
106.939453	66276.695313
105.591797	52333.960938
104.242188	40573.906250
102.892578	31284.560547
