#Wave		#Intensity
3203.346680	20818.458984
3202.517578	20243.330078
3201.688477	19941.789063
3200.858398	20141.500000
3200.029297	20439.517578
3199.199219	20095.058594
3198.370117	20436.007813
3197.540039	20322.103516
3196.709961	19928.675781
3195.879883	19922.396484
3195.048828	20112.667969
3194.218750	20112.500000
3193.387695	20149.171875
3192.557617	20284.060547
3191.726563	20145.751953
3190.895508	20418.685547
3190.064453	20295.740234
3189.233398	20280.201172
3188.401367	20200.257813
3187.570313	20197.003906
3186.738281	20110.964844
3185.907227	20077.070313
3185.075195	19948.164063
3184.243164	19761.070313
3183.411133	20082.693359
3182.578125	20100.904297
3181.746094	19913.875000
3180.913086	19901.480469
3180.080078	20323.921875
3179.248047	19962.427734
3178.415039	19980.640625
3177.581055	19919.269531
3176.748047	19906.880859
3175.915039	20169.873047
3175.081055	20258.402344
3174.248047	19842.205078
3173.414063	20242.701172
3172.580078	20276.134766
3171.746094	20511.337891
3170.912109	20220.695313
3170.077148	19783.443359
3169.243164	19764.976563
3168.408203	20302.583984
3167.573242	20094.640625
3166.738281	19969.230469
3165.903320	20149.244141
3165.068359	20118.519531
3164.233398	19977.900391
3163.397461	20453.902344
3162.562500	20069.123047
3161.726563	20215.408203
3160.890625	20569.105469
3160.054688	20163.140625
3159.218750	20272.738281
3158.382813	20199.335938
3157.545898	20537.562500
3156.709961	20336.105469
3155.873047	20079.849609
3155.036133	20210.703125
3154.199219	20253.150391
3153.362305	20255.980469
3152.525391	20045.591797
3151.687500	20152.000000
3150.850586	20355.812500
3150.012695	19841.054688
3149.174805	20026.587891
3148.336914	20181.625000
3147.499023	20199.673828
3146.661133	20074.718750
3145.823242	20059.314453
3144.984375	20077.375000
3144.145508	20329.589844
3143.307617	20207.730469
3142.468750	20031.189453
3141.629883	20201.218750
3140.790039	20474.523438
3139.951172	20550.228516
3139.112305	20024.357422
3138.272461	20485.890625
3137.432617	20096.871094
3136.592773	20069.339844
3135.752930	20333.289063
3134.913086	20014.300781
3134.073242	20056.603516
3133.232422	20132.273438
3132.392578	20235.228516
3131.551758	20265.337891
3130.710938	20386.435547
3129.870117	20264.873047
3129.029297	20161.541016
3128.188477	20631.250000
3127.346680	20573.361328
3126.505859	20430.628906
3125.664063	20306.123047
3124.822266	20093.792969
3123.980469	20535.867188
3123.138672	20608.279297
3122.296875	20074.994141
3121.455078	20640.998047
3120.612305	20446.947266
3119.769531	20598.023438
3118.927734	20467.593750
3118.084961	20573.228516
3117.242188	20403.513672
3116.398438	20312.500000
3115.555664	20569.330078
3114.712891	20369.457031
3113.869141	20520.371094
3113.025391	20450.556641
3112.181641	20562.115234
3111.337891	20688.748047
3110.494141	20507.142578
3109.650391	20352.785156
3108.805664	20594.167969
3107.961914	20889.835938
3107.117188	20732.468750
3106.272461	20732.146484
3105.427734	20771.064453
3104.583008	20731.498047
3103.737305	20607.451172
3102.892578	20498.529297
3102.046875	20721.474609
3101.202148	20760.359375
3100.356445	20582.101563
3099.510742	20473.251953
3098.665039	20662.892578
3097.818359	20728.888672
3096.972656	21325.283203
3096.125977	21514.693359
3095.280273	21429.878906
3094.433594	21296.896484
3093.586914	21531.394531
3092.740234	21684.511719
3091.892578	21939.947266
3091.045898	22529.447266
3090.198242	22363.283203
3089.351563	22847.195313
3088.503906	23204.578125
3087.656250	23637.056641
3086.808594	23266.277344
3085.960938	23115.162109
3085.112305	23300.873047
3084.264648	23474.496094
3083.416016	22980.736328
3082.567383	22541.232422
3081.718750	22865.144531
3080.870117	22657.148438
3080.021484	22731.599609
3079.172852	22812.033203
3078.323242	22390.927734
3077.473633	22306.246094
3076.625000	22344.677734
3075.775391	22452.134766
3074.925781	22235.431641
3074.075195	22639.935547
3073.225586	22231.259766
3072.375977	22563.640625
3071.525391	22802.935547
3070.674805	23027.160156
3069.824219	23065.421875
3068.973633	23571.320313
3068.123047	23876.236328
3067.272461	24402.816406
3066.420898	25249.828125
3065.570313	26252.351563
3064.718750	27119.757813
3063.867188	28133.632813
3063.015625	28021.298828
3062.164063	28391.013672
3061.311523	27626.109375
3060.459961	27154.757813
3059.607422	27186.285156
3058.755859	27095.132813
3057.903320	27742.904297
3057.050781	28393.455078
3056.197266	29184.347656
3055.344727	29045.089844
3054.492188	28771.343750
3053.638672	28545.511719
3052.785156	27503.871094
3051.932617	27338.076172
3051.079102	26129.658203
3050.224609	25318.916016
3049.371094	25114.726563
3048.517578	24916.574219
3047.663086	24670.712891
3046.808594	24771.214844
3045.955078	24940.332031
3045.100586	25136.251953
3044.245117	25391.783203
3043.390625	25620.380859
3042.536133	25649.056641
3041.680664	25406.333984
3040.825195	25306.814453
3039.970703	24691.554688
3039.115234	24917.097656
3038.258789	24343.822266
3037.403320	24244.537109
3036.547852	23975.455078
3035.691406	23986.480469
3034.835938	23836.664063
3033.979492	23704.763672
3033.123047	24076.105469
3032.266602	24045.425781
3031.409180	24348.128906
3030.552734	24430.505859
3029.695313	24715.193359
3028.838867	24571.375000
3027.981445	24939.238281
3027.124023	25366.462891
3026.266602	25032.292969
3025.409180	24971.761719
3024.550781	24833.958984
3023.693359	24306.839844
3022.834961	24154.330078
3021.976563	23820.621094
3021.118164	23757.359375
3020.259766	23756.494141
3019.401367	24049.642578
3018.541992	23986.373047
3017.683594	23813.277344
3016.824219	24622.769531
3015.964844	24375.427734
3015.106445	24273.566406
3014.246094	24287.451172
3013.386719	24239.033203
3012.527344	24872.808594
3011.666992	24201.552734
3010.807617	24508.972656
3009.947266	24422.009766
3009.086914	24106.837891
3008.226563	24031.820313
3007.366211	24416.109375
3006.504883	24418.091797
3005.644531	24618.539063
3004.783203	24804.111328
3003.921875	25655.896484
3003.060547	25761.300781
3002.199219	26017.642578
3001.337891	26285.740234
3000.476563	26435.378906
2999.614258	26108.599609
2998.751953	25693.175781
2997.890625	24899.277344
2997.028320	24623.177734
2996.166016	23986.423828
2995.302734	23601.169922
2994.440430	23254.468750
2993.577148	23215.248047
2992.714844	22839.169922
2991.851563	22847.298828
2990.988281	22849.517578
2990.125000	22786.755859
2989.261719	22827.373047
2988.397461	22897.501953
2987.534180	22758.005859
2986.669922	22878.298828
2985.805664	22738.849609
2984.941406	23109.917969
2984.077148	23014.728516
2983.212891	23019.859375
2982.348633	23381.851563
2981.483398	23437.050781
2980.619141	23524.664063
2979.753906	23125.851563
2978.888672	24062.328125
2978.023438	24282.404297
2977.158203	24493.570313
2976.291992	24663.425781
2975.426758	24806.714844
2974.560547	25409.375000
2973.694336	25958.839844
2972.828125	26263.769531
2971.961914	26930.660156
2971.095703	27403.089844
2970.229492	27534.023438
2969.362305	27661.970703
2968.495117	27442.759766
2967.628906	27594.208984
2966.761719	27648.566406
2965.894531	28085.134766
2965.026367	28962.525391
2964.159180	29295.863281
2963.291016	29834.810547
2962.423828	30743.812500
2961.555664	31147.208984
2960.687500	31817.775391
2959.819336	32244.359375
2958.951172	32274.386719
2958.082031	31931.537109
2957.213867	32011.505859
2956.344727	31932.957031
2955.475586	31725.314453
2954.606445	30957.330078
2953.737305	31225.152344
2952.868164	31445.957031
2951.999023	31669.621094
2951.128906	31356.625000
2950.258789	31559.708984
2949.388672	31792.037109
2948.519531	32258.750000
2947.648438	32238.884766
2946.778320	32131.130859
2945.908203	31874.015625
2945.037109	31716.564453
2944.166992	31808.076172
2943.295898	31068.029297
2942.424805	30483.375000
2941.553711	29149.609375
2940.681641	28340.113281
2939.810547	27396.281250
2938.938477	26806.744141
2938.067383	26395.826172
2937.195313	25879.755859
2936.323242	25498.361328
2935.451172	25383.140625
2934.578125	25142.259766
2933.706055	24746.552734
2932.833008	25157.509766
2931.960938	24770.691406
2931.087891	24059.736328
2930.214844	24651.693359
2929.341797	24495.849609
2928.467773	24976.587891
2927.594727	25308.281250
2926.720703	25099.865234
2925.847656	25629.884766
2924.973633	25614.068359
2924.099609	25799.566406
2923.225586	26098.765625
2922.350586	26015.798828
2921.476563	26262.376953
2920.601563	26004.470703
2919.727539	26405.472656
2918.852539	26007.720703
2917.977539	25735.408203
2917.102539	26057.585938
2916.226563	25797.005859
2915.351563	26308.398438
2914.475586	27134.158203
2913.599609	27578.195313
2912.724609	28374.367188
2911.848633	29615.650391
2910.971680	29965.935547
2910.095703	30610.013672
2909.219727	30479.955078
2908.342773	29995.035156
2907.465820	29108.890625
2906.588867	28528.380859
2905.711914	27471.207031
2904.834961	26905.683594
2903.958008	26567.064453
2903.080078	26028.023438
2902.203125	25904.679688
2901.325195	26243.310547
2900.447266	26058.968750
2899.569336	26179.640625
2898.691406	26001.173828
2897.812500	25889.542969
2896.934570	25873.742188
2896.055664	25936.314453
2895.176758	25990.158203
2894.297852	25501.400391
2893.418945	25366.728516
2892.540039	25380.027344
2891.661133	24952.507813
2890.781250	24933.972656
2889.901367	24439.978516
2889.022461	24899.816406
2888.142578	24901.585938
2887.261719	24764.259766
2886.381836	24096.773438
2885.501953	23933.548828
2884.621094	23947.054688
2883.741211	23792.593750
2882.860352	23895.875000
2881.979492	23744.367188
2881.098633	23714.474609
2880.216797	23950.839844
2879.335938	23770.458984
2878.454102	23763.718750
2877.573242	24101.201172
2876.691406	23842.792969
2875.809570	23555.550781
2874.927734	24147.326172
2874.044922	23984.427734
2873.163086	23911.181641
2872.280273	23837.955078
2871.398438	24007.458984
2870.515625	23639.576172
2869.632813	23684.853516
2868.749023	23510.630859
2867.866211	23607.888672
2866.983398	23586.744141
2866.099609	23646.431641
2865.215820	23530.046875
2864.332031	23696.488281
2863.448242	23603.214844
2862.564453	23662.857422
2861.680664	24019.550781
2860.795898	24151.197266
2859.912109	24697.990234
2859.027344	24593.095703
2858.142578	24491.115234
2857.257813	24743.634766
2856.373047	24869.292969
2855.487305	25323.333984
2854.602539	24780.587891
2853.716797	25375.615234
2852.831055	25331.193359
2851.945313	25781.984375
2851.059570	26068.548828
2850.173828	26401.068359
2849.287109	26221.257813
2848.401367	26182.486328
2847.514648	26845.648438
2846.627930	26312.068359
2845.741211	26106.501953
2844.854492	25777.363281
2843.967773	24996.974609
2843.081055	24941.187500
2842.193359	24790.578125
2841.305664	24099.804688
2840.417969	23759.759766
2839.530273	23658.246094
2838.642578	23967.470703
2837.754883	23328.964844
2836.866211	23210.339844
2835.978516	23152.039063
2835.089844	23280.320313
2834.201172	22923.570313
2833.312500	23060.453125
2832.423828	23013.685547
2831.535156	22803.435547
2830.645508	22753.857422
2829.755859	22761.640625
2828.867188	22967.242188
2827.977539	23141.246094
2827.087891	22727.654297
2826.197266	22552.039063
2825.307617	22608.552734
2824.416992	22742.394531
2823.527344	22764.488281
2822.636719	22886.802734
2821.746094	22582.455078
2820.855469	22865.076172
2819.964844	22878.544922
2819.073242	22637.304688
2818.182617	23028.509766
2817.291016	22764.433594
2816.399414	22883.746094
2815.507813	22308.039063
2814.616211	22570.361328
2813.724609	22915.511719
2812.832031	22843.193359
2811.940430	23036.705078
2811.047852	22881.513672
2810.155273	22903.521484
2809.262695	22888.384766
2808.370117	22661.882813
2807.476563	22609.662109
2806.583984	22968.630859
2805.690430	22513.833984
2804.796875	22655.761719
2803.903320	22769.103516
2803.009766	22853.873047
2802.116211	22775.990234
2801.222656	22652.490234
2800.328125	22554.699219
2799.434570	22861.876953
2798.540039	22821.105469
2797.645508	22731.884766
2796.750977	22765.253906
2795.855469	23106.392578
2794.960938	22877.548828
2794.065430	22751.337891
2793.170898	22457.109375
2792.275391	22866.425781
2791.379883	22640.613281
2790.484375	22691.037109
2789.587891	22798.376953
2788.692383	22800.373047
2787.795898	22483.654297
2786.900391	22625.115234
2786.003906	22428.003906
2785.107422	22933.496094
2784.209961	22872.902344
2783.313477	22647.412109
2782.416992	23036.060547
2781.519531	22466.679688
2780.622070	22590.925781
2779.724609	22612.837891
2778.827148	23086.470703
2777.929688	22736.173828
2777.032227	22644.443359
2776.133789	22720.283203
2775.235352	22773.382813
2774.336914	22959.886719
2773.438477	22751.806641
2772.540039	23071.630859
2771.641602	22699.031250
2770.743164	22933.652344
2769.843750	22564.029297
2768.944336	22971.589844
2768.044922	22817.582031
2767.145508	22802.541016
2766.246094	22855.535156
2765.346680	23217.435547
2764.446289	22658.265625
2763.546875	22464.763672
2762.646484	22792.554688
2761.746094	22480.134766
2760.845703	22804.984375
2759.945313	22617.246094
2759.043945	22896.671875
2758.143555	22615.570313
2757.242188	22510.021484
2756.340820	22548.812500
2755.439453	22748.851563
2754.538086	22680.101563
2753.636719	23157.214844
2752.735352	22799.992188
2751.833008	22572.939453
2750.930664	22671.042969
2750.028320	22633.449219
2749.125977	22855.849609
2748.223633	22626.105469
2747.321289	22732.609375
2746.417969	22401.277344
2745.515625	22795.835938
2744.612305	22538.011719
2743.708984	23050.992188
2742.805664	22770.628906
2741.902344	22882.644531
2740.998047	22529.031250
2740.094727	22982.429688
2739.190430	23125.384766
2738.286133	22698.572266
2737.381836	22539.792969
2736.477539	22843.458984
2735.573242	22952.513672
2734.667969	22745.851563
2733.763672	22821.066406
2732.858398	22868.082031
2731.953125	23216.519531
2731.047852	22581.802734
2730.142578	22733.033203
2729.237305	22791.291016
2728.331055	22917.099609
2727.425781	23203.316406
2726.519531	22954.693359
2725.613281	23102.921875
2724.707031	22826.259766
2723.800781	22839.433594
2722.893555	23170.427734
2721.987305	22874.201172
2721.080078	22819.876953
2720.172852	23024.207031
2719.265625	22798.416016
2718.358398	22954.904297
2717.451172	22791.013672
2716.542969	23014.878906
2715.635742	22817.322266
2714.727539	23060.767578
2713.819336	22748.136719
2712.911133	22994.320313
2712.002930	23032.695313
2711.094727	22770.738281
2710.185547	23308.646484
2709.276367	22805.431641
2708.368164	23051.404297
2707.458984	22873.757813
2706.549805	23001.851563
2705.639648	22661.640625
2704.730469	22814.958984
2703.820313	23043.906250
2702.911133	22813.154297
2702.000977	23030.818359
2701.090820	22999.062500
2700.180664	23311.867188
2699.269531	23210.052734
2698.359375	23237.087891
2697.448242	23227.714844
2696.537109	23221.142578
2695.625977	22912.283203
2694.714844	23350.726563
2693.803711	23338.539063
2692.892578	23147.310547
2691.980469	22749.154297
2691.069336	23279.625000
2690.157227	23155.605469
2689.245117	23327.978516
2688.333008	23125.720703
2687.419922	23387.478516
2686.507813	23079.087891
2685.594727	23167.539063
2684.682617	23194.503906
2683.769531	23207.494141
2682.856445	23097.605469
2681.943359	22982.166016
2681.029297	23252.017578
2680.116211	23368.263672
2679.202148	22968.175781
2678.288086	23282.541016
2677.374023	23203.431641
2676.459961	22906.771484
2675.545898	23293.505859
2674.630859	23264.625000
2673.716797	23054.527344
2672.801758	23218.039063
2671.886719	23217.052734
2670.971680	23249.507813
2670.056641	23304.240234
2669.141602	22957.798828
2668.225586	23240.958984
2667.310547	23206.548828
2666.394531	23133.166016
2665.478516	23196.222656
2664.562500	23320.494141
2663.646484	22835.230469
2662.729492	23093.087891
2661.813477	23111.591797
2660.896484	23405.480469
2659.979492	23245.923828
2659.062500	23475.734375
2658.145508	23093.787109
2657.228516	23237.369141
2656.310547	23556.011719
2655.393555	23168.677734
2654.475586	22889.832031
2653.557617	23072.246094
2652.639648	23429.589844
2651.721680	23111.957031
2650.802734	23230.376953
2649.884766	23232.152344
2648.965820	23236.703125
2648.046875	23407.775391
2647.127930	23226.373047
2646.208984	23400.164063
2645.290039	23474.033203
2644.370117	23561.746094
2643.451172	23269.505859
2642.531250	23354.449219
2641.611328	23212.039063
2640.691406	23535.335938
2639.771484	23243.289063
2638.850586	23181.320313
2637.930664	23426.890625
2637.009766	23356.601563
2636.088867	23449.736328
2635.167969	23531.765625
2634.247070	23442.111328
2633.326172	23261.132813
2632.405273	23553.498047
2631.483398	23236.962891
2630.561523	23631.609375
2629.639648	23411.986328
2628.717773	23405.414063
2627.795898	23409.902344
2626.874023	23395.035156
2625.951172	23346.996094
2625.029297	23608.554688
2624.106445	23472.056641
2623.183594	23609.164063
2622.260742	23508.626953
2621.336914	23775.511719
2620.414063	23318.693359
2619.490234	23668.363281
2618.567383	23645.185547
2617.643555	23845.619141
2616.719727	23469.126953
2615.794922	23727.474609
2614.871094	23753.964844
2613.947266	23416.291016
2613.022461	23525.572266
2612.097656	23819.591797
2611.172852	23603.396484
2610.248047	23376.242188
2609.323242	23521.289063
2608.397461	23997.015625
2607.472656	23833.285156
2606.546875	23402.355469
2605.621094	23563.830078
2604.695313	23628.851563
2603.769531	23941.695313
2602.842773	23466.972656
2601.916992	23845.810547
2600.990234	23613.472656
2600.063477	23763.744141
2599.136719	23663.570313
2598.209961	23761.509766
2597.283203	23697.126953
2596.355469	23907.789063
2595.428711	23782.906250
2594.500977	23784.533203
2593.573242	23516.767578
2592.645508	23752.054688
2591.717773	23657.503906
2590.790039	23829.496094
2589.861328	23839.351563
2588.932617	23972.802734
2588.004883	23537.746094
2587.076172	23547.642578
2586.146484	23626.167969
2585.217773	23597.617188
2584.289063	23489.486328
2583.359375	23488.406250
2582.429688	23605.296875
2581.500000	23417.666016
2580.570313	23386.427734
2579.640625	23506.017578
2578.710938	23661.210938
2577.780273	24000.017578
2576.849609	23713.802734
2575.919922	23597.583984
2574.989258	23571.822266
2574.057617	23576.201172
2573.126953	23607.968750
2572.196289	23768.441406
2571.264648	23575.636719
2570.333008	23667.617188
2569.401367	23882.744141
2568.469727	23711.908203
2567.538086	23718.990234
2566.605469	23767.109375
2565.673828	23648.347656
2564.741211	23846.888672
2563.808594	23968.794922
2562.875977	23956.689453
2561.943359	23676.681641
2561.010742	23732.955078
2560.077148	23939.515625
2559.144531	23553.083984
2558.210938	23743.212891
2557.277344	23627.353516
2556.343750	24079.587891
2555.409180	23802.605469
2554.475586	23574.853516
2553.541016	23794.849609
2552.607422	23886.496094
2551.672852	23727.060547
2550.738281	23998.759766
2549.802734	24106.695313
2548.868164	23865.474609
2547.933594	23430.714844
2546.998047	23800.439453
2546.062500	23668.431641
2545.126953	23918.064453
2544.191406	23796.980469
2543.255859	23656.861328
2542.319336	23748.357422
2541.383789	23818.033203
2540.447266	23672.529297
2539.510742	23924.636719
2538.574219	23719.265625
2537.637695	23772.564453
2536.700195	23537.343750
2535.763672	23473.638672
2534.826172	23812.636719
2533.888672	23659.132813
2532.951172	23704.236328
2532.013672	23934.248047
2531.075195	23677.474609
2530.137695	23456.125000
2529.199219	23680.626953
2528.261719	23603.386719
2527.323242	23903.873047
2526.383789	23631.009766
2525.445313	23830.886719
2524.506836	24074.150391
2523.567383	23852.986328
2522.627930	23678.046875
2521.689453	23769.197266
2520.749023	23852.175781
2519.809570	24179.361328
2518.870117	24140.144531
2517.929688	23691.300781
2516.990234	23836.619141
2516.049805	23751.373047
2515.109375	24018.652344
2514.168945	23670.427734
2513.227539	24021.660156
2512.287109	23722.332031
2511.345703	23734.720703
2510.404297	23747.105469
2509.462891	23832.623047
2508.521484	24010.201172
2507.580078	23586.546875
2506.638672	23996.953125
2505.696289	23852.269531
2504.753906	23867.324219
2503.812500	23809.306641
2502.869141	23786.482422
2501.926758	23760.958984
2500.984375	23981.587891
2500.041016	23815.408203
2499.098633	23879.123047
2498.155273	23637.312500
2497.211914	23919.988281
2496.268555	23970.138672
2495.324219	23825.710938
2494.380859	23927.193359
2493.436523	24209.632813
2492.493164	24024.720703
2491.548828	23777.757813
2490.604492	24211.283203
2489.659180	23910.376953
2488.714844	23838.994141
2487.769531	24167.046875
2486.825195	23955.335938
2485.879883	23900.166016
2484.934570	24362.916016
2483.988281	24027.212891
2483.042969	23963.968750
2482.097656	23453.193359
2481.151367	23939.972656
2480.205078	23909.111328
2479.258789	23732.744141
2478.312500	23782.757813
2477.366211	24077.894531
2476.418945	23955.453125
2475.472656	24010.789063
2474.525391	24235.736328
2473.578125	23588.363281
2472.630859	24031.330078
2471.682617	24102.761719
2470.735352	24088.062500
2469.787109	23952.302734
2468.839844	23843.484375
2467.891602	23893.380859
2466.943359	24169.140625
2465.995117	24065.714844
2465.045898	24048.343750
2464.097656	23998.726563
2463.148438	24131.859375
2462.199219	24098.363281
2461.250000	23667.287109
2460.300781	24410.123047
2459.351563	23874.400391
2458.401367	24117.529297
2457.452148	24156.544922
2456.501953	24254.599609
2455.551758	24070.826172
2454.601563	24139.343750
2453.650391	24398.326172
2452.700195	24131.458984
2451.749023	24159.701172
2450.798828	24013.630859
2449.847656	24213.474609
2448.896484	23783.287109
2447.944336	24433.388672
2446.993164	24000.623047
2446.041016	24197.656250
2445.089844	23960.632813
2444.137695	23913.863281
2443.185547	24081.353516
2442.233398	24155.070313
2441.280273	24239.470703
2440.328125	23930.357422
2439.375000	23803.335938
2438.421875	24104.500000
2437.468750	24295.869141
2436.515625	24348.074219
2435.562500	23819.876953
2434.608398	24233.152344
2433.655273	24060.748047
2432.701172	24011.369141
2431.747070	24517.957031
2430.792969	24257.400391
2429.838867	23951.501953
2428.883789	24281.529297
2427.929688	24245.507813
2426.974609	24038.574219
2426.019531	24208.208984
2425.064453	24289.685547
2424.109375	24229.658203
2423.153320	23836.037109
2422.198242	24098.988281
2421.242188	24449.898438
2420.286133	24107.115234
2419.330078	24148.515625
2418.374023	24168.568359
2417.417969	24009.972656
2416.460938	23966.058594
2415.504883	24308.644531
2414.547852	24315.330078
2413.590820	24138.158203
2412.633789	24230.119141
2411.675781	23871.888672
2410.718750	24312.746094
2409.760742	24135.689453
2408.803711	23894.791016
2407.845703	24050.599609
2406.887695	23809.792969
2405.929688	24021.445313
2404.970703	24057.425781
2404.011719	24096.054688
2403.052734	24304.894531
2402.093750	24351.447266
2401.134766	24132.093750
2400.175781	24287.654297
2399.216797	24315.576172
2398.257813	24032.552734
2397.296875	24289.023438
2396.337891	24008.751953
2395.376953	24355.453125
2394.417969	24176.183594
2393.457031	24124.429688
2392.496094	24261.197266
2391.537109	24413.845703
2390.576172	24120.554688
2389.615234	24121.916016
2388.654297	23865.910156
2387.691406	24254.621094
2386.730469	24367.357422
2385.769531	24053.093750
2384.806641	24176.429688
2383.845703	24230.796875
2382.882813	24046.587891
2381.921875	24063.855469
2380.958984	24391.138672
2379.996094	24511.666016
2379.033203	24256.007813
2378.070313	24143.451172
2377.107422	24197.757813
2376.144531	23868.140625
2375.181641	24181.894531
2374.218750	24085.300781
2373.253906	24073.419922
2372.291016	24019.208984
2371.326172	24168.712891
2370.363281	24540.345703
2369.398438	24226.914063
2368.433594	24503.226563
2367.468750	24263.925781
2366.505859	24363.041016
2365.541016	24377.552734
2364.574219	24423.767578
2363.609375	24361.646484
2362.644531	24281.052734
2361.679688	24242.742188
2360.712891	23913.970703
2359.748047	24393.218750
2358.781250	23974.773438
2357.816406	24255.902344
2356.849609	24386.515625
2355.882813	24142.417969
2354.916016	24317.853516
2353.949219	24245.292969
2352.982422	24307.251953
2352.015625	24239.988281
2351.048828	24404.746094
2350.080078	24479.826172
2349.113281	24283.425781
2348.144531	24374.310547
2347.177734	24096.316406
2346.208984	24160.859375
2345.242188	24288.589844
2344.273438	24242.478516
2343.304688	24220.076172
2342.335938	24550.433594
2341.367188	24291.103516
2340.398438	24426.599609
2339.429688	24356.818359
2338.458984	24418.595703
2337.490234	24219.953125
2336.519531	24355.369141
2335.550781	24637.988281
2334.580078	24355.275391
2333.611328	24038.482422
2332.640625	24189.605469
2331.669922	24422.136719
2330.699219	24299.906250
2329.728516	24747.746094
2328.757813	24591.357422
2327.787109	24406.132813
2326.814453	24381.128906
2325.843750	24697.400391
2324.873047	24299.644531
2323.900391	24985.851563
2322.929688	24105.386719
2321.957031	24654.978516
2320.984375	24446.343750
2320.011719	24098.781250
2319.039063	24496.017578
2318.066406	24376.648438
2317.093750	24320.226563
2316.121094	24439.419922
2315.148438	24231.019531
2314.175781	24609.566406
2313.201172	24595.052734
2312.228516	24546.496094
2311.253906	24594.845703
2310.281250	24596.050781
2309.306641	24301.437500
2308.332031	24410.001953
2307.357422	24848.269531
2306.382813	24268.552734
2305.408203	24439.853516
2304.433594	24446.308594
2303.458984	24507.681641
2302.482422	24697.160156
2301.507813	24612.064453
2300.533203	24035.566406
2299.556641	24387.066406
2298.580078	24372.615234
2297.605469	24449.611328
2296.628906	24623.234375
2295.652344	24807.250000
2294.675781	24568.152344
2293.699219	24650.285156
2292.722656	24674.958984
2291.746094	24563.896484
2290.767578	24544.208984
2289.791016	24177.494141
2288.814453	24283.097656
2287.835938	24813.839844
2286.857422	24734.136719
2285.880859	24748.332031
2284.902344	24525.273438
2283.923828	24409.160156
2282.945313	24478.130859
2281.966797	24445.451172
2280.988281	24556.078125
2280.009766	24593.728516
2279.029297	24751.175781
2278.050781	24668.990234
2277.072266	24545.171875
2276.091797	24530.730469
2275.113281	24193.539063
2274.132813	24402.968750
2273.152344	24599.316406
2272.171875	24910.070313
2271.191406	24622.457031
2270.210938	24753.652344
2269.230469	24544.166016
2268.250000	24477.742188
2267.269531	24668.681641
2266.287109	24732.207031
2265.306641	24683.970703
2264.326172	24464.271484
2263.343750	24608.326172
2262.361328	24258.843750
2261.378906	24761.253906
2260.398438	24585.822266
2259.416016	24490.923828
2258.433594	24302.615234
2257.451172	25051.226563
2256.466797	24375.074219
2255.484375	24181.685547
2254.501953	24556.423828
2253.517578	24749.496094
2252.535156	24856.931641
2251.550781	24603.958984
2250.568359	25058.736328
2249.583984	24906.890625
2248.599609	25045.324219
2247.615234	24789.892578
2246.630859	24710.695313
2245.646484	24535.693359
2244.662109	24850.189453
2243.677734	24602.720703
2242.691406	24316.501953
2241.707031	24648.994141
2240.720703	24355.097656
2239.736328	24679.710938
2238.750000	24810.185547
2237.765625	24780.242188
2236.779297	24613.238281
2235.792969	24547.134766
2234.806641	24977.447266
2233.820313	24601.109375
2232.833984	24679.773438
2231.845703	24779.082031
2230.859375	24906.779297
2229.873047	24770.939453
2228.884766	24431.099609
2227.898438	24623.349609
2226.910156	25078.898438
2225.921875	24592.023438
2224.933594	24662.833984
2223.945313	24635.554688
2222.957031	24830.189453
2221.968750	24648.097656
2220.980469	24239.072266
2219.992188	24619.363281
2219.003906	24700.410156
2218.013672	24655.099609
2217.025391	25053.177734
2216.035156	24806.789063
2215.046875	24640.367188
2214.056641	24757.412109
2213.066406	25057.316406
2212.076172	25030.015625
2211.085938	24747.779297
2210.095703	24944.542969
2209.105469	24804.000000
2208.115234	24982.671875
2207.123047	24782.976563
2206.132813	24593.640625
2205.140625	24594.742188
2204.150391	24773.326172
2203.158203	24882.414063
2202.166016	24724.037109
2201.175781	24920.507813
2200.183594	24723.619141
2199.191406	24727.263672
2198.199219	24851.681641
2197.205078	24708.853516
2196.212891	24918.005859
2195.220703	25168.183594
2194.228516	24876.423828
2193.234375	25026.388672
2192.240234	24739.882813
2191.248047	25002.755859
2190.253906	24990.943359
2189.259766	24848.273438
2188.265625	25090.472656
2187.271484	24996.568359
2186.277344	24825.753906
2185.283203	24842.183594
2184.289063	24968.849609
2183.294922	24734.037109
2182.298828	25029.833984
2181.304688	24628.523438
2180.308594	25039.533203
2179.312500	24766.435547
2178.318359	24770.042969
2177.322266	25098.876953
2176.326172	25197.164063
2175.330078	24706.617188
2174.333984	24830.529297
2173.337891	24788.056641
2172.339844	24771.183594
2171.343750	24907.814453
2170.347656	24768.144531
2169.349609	24871.482422
2168.353516	25056.611328
2167.355469	24868.408203
2166.357422	24800.410156
2165.359375	25005.902344
2164.361328	24851.019531
2163.363281	24706.406250
2162.365234	25210.691406
2161.367188	25237.189453
2160.369141	24742.726563
2159.369141	25014.406250
2158.371094	24887.750000
2157.373047	25100.609375
2156.373047	24943.355469
2155.373047	25099.998047
2154.373047	24871.363281
2153.375000	25270.285156
2152.375000	24827.466797
2151.375000	25392.007813
2150.375000	25099.734375
2149.373047	25228.152344
2148.373047	25012.458984
2147.373047	24924.248047
2146.371094	24955.812500
2145.371094	25056.146484
2144.369141	25255.777344
2143.367188	24828.888672
2142.367188	25033.582031
2141.365234	25327.306641
2140.363281	25137.328125
2139.361328	24942.322266
2138.359375	25179.935547
2137.357422	25089.291016
2136.353516	25047.001953
2135.351563	25482.849609
2134.347656	25491.365234
2133.345703	25604.113281
2132.341797	25017.789063
2131.339844	25232.238281
2130.335938	25413.582031
2129.332031	25137.541016
2128.328125	25158.800781
2127.324219	25454.357422
2126.320313	25280.019531
2125.316406	25019.414063
2124.310547	24928.978516
2123.306641	25001.015625
2122.300781	25050.187500
2121.296875	25396.210938
2120.291016	25417.394531
2119.285156	25025.121094
2118.281250	24998.169922
2117.275391	25442.863281
2116.269531	25197.820313
2115.263672	25368.570313
2114.257813	25118.548828
2113.250000	25314.593750
2112.244141	25150.804688
2111.238281	25394.908203
2110.230469	25416.048828
2109.224609	25057.332031
2108.216797	25303.859375
2107.208984	25517.396484
2106.201172	25414.476563
2105.193359	25422.939453
2104.185547	25547.789063
2103.177734	25353.839844
2102.169922	25455.892578
2101.162109	25133.042969
2100.154297	25171.882813
2099.144531	25774.488281
2098.136719	25246.996094
2097.126953	25439.962891
2096.117188	25119.904297
2095.109375	25272.402344
2094.099609	25429.902344
2093.089844	25296.898438
2092.080078	25628.582031
2091.070313	25376.921875
2090.058594	25589.833984
2089.048828	25535.132813
2088.039063	25270.992188
2087.027344	25466.152344
2086.017578	25328.246094
2085.005859	25394.691406
2083.996094	25589.732422
2082.984375	25668.718750
2081.972656	25583.808594
2080.960938	25173.761719
2079.949219	25570.326172
2078.937500	25230.968750
2077.925781	25682.818359
2076.912109	25562.705078
2075.900391	25367.076172
2074.886719	25425.843750
2073.875000	25547.533203
2072.861328	25442.623047
2071.847656	25375.501953
2070.835938	25466.939453
2069.822266	25643.894531
2068.808594	25528.970703
2067.794922	25640.458984
2066.779297	25724.244141
2065.765625	25501.244141
2064.751953	25690.611328
2063.736328	25505.392578
2062.722656	25609.248047
2061.707031	25454.253906
2060.693359	25540.496094
2059.677734	25523.718750
2058.662109	25562.199219
2057.646484	25696.089844
2056.630859	25616.525391
2055.615234	25496.822266
2054.599609	25527.750000
2053.583984	25739.345703
2052.566406	25494.228516
2051.550781	25936.550781
2050.533203	25636.300781
2049.517578	25546.800781
2048.500000	25537.566406
2047.482422	25187.388672
2046.464844	25629.392578
2045.447266	25469.779297
2044.429688	25445.525391
2043.412109	25701.873047
2042.394531	25554.849609
2041.376953	25415.386719
2040.357422	25669.105469
2039.339844	25309.347656
2038.320313	25828.339844
2037.300781	25626.349609
2036.283203	25754.744141
2035.263672	25462.759766
2034.244141	25581.128906
2033.224609	25424.330078
2032.205078	25710.216797
2031.185547	25485.937500
2030.166016	25424.228516
2029.144531	25599.990234
2028.125000	25678.230469
2027.103516	25763.939453
2026.083984	25382.441406
2025.062500	25545.601563
2024.041016	25536.384766
2023.019531	25522.175781
2021.998047	25690.224609
2020.976563	25528.716797
2019.955078	25764.091797
2018.933594	25432.937500
2017.912109	25625.835938
2016.888672	25526.806641
2015.867188	25490.162109
2014.843750	25675.470703
2013.822266	25636.318359
2012.798828	25497.462891
2011.775391	25453.367188
2010.751953	25683.414063
2009.728516	25385.150391
2008.705078	25714.781250
2007.681641	25608.404297
2006.658203	25833.289063
2005.632813	25754.316406
2004.609375	25555.867188
2003.585938	25633.783203
2002.560547	25547.414063
2001.535156	25473.513672
2000.509766	25362.316406
1999.486328	25736.230469
1998.460938	25567.822266
1997.435547	25354.707031
1996.410156	25482.287109
1995.382813	25405.980469
1994.357422	25722.406250
1993.332031	25648.568359
1992.304688	25574.753906
1991.279297	25985.394531
1990.251953	25665.646484
1989.224609	25467.691406
1988.197266	25644.738281
1987.171875	25635.529297
1986.144531	25633.769531
1985.117188	25450.837891
1984.087891	25811.388672
1983.060547	25444.894531
1982.033203	26115.398438
1981.003906	25669.607422
1979.976563	25987.726563
1978.947266	25757.804688
1977.919922	25589.933594
1976.890625	26036.787109
1975.861328	25601.287109
1974.832031	25554.927734
1973.802734	25545.744141
1972.773438	25573.712891
1971.744141	25537.285156
1970.712891	25696.478516
1969.683594	25513.976563
1968.654297	25893.414063
1967.623047	25839.630859
1966.591797	25763.593750
1965.562500	25756.853516
1964.531250	25428.546875
1963.500000	25671.656250
1962.468750	25711.914063
1961.437500	25766.992188
1960.406250	25671.263672
1959.373047	26121.777344
1958.341797	25578.742188
1957.310547	25715.337891
1956.277344	25471.457031
1955.246094	25546.275391
1954.212891	25853.201172
1953.179688	25895.832031
1952.146484	25940.916016
1951.113281	25660.171875
1950.080078	26048.310547
1949.046875	25491.285156
1948.013672	26012.542969
1946.980469	25724.570313
1945.945313	25777.031250
1944.912109	25799.884766
1943.876953	25655.082031
1942.841797	26087.136719
1941.808594	25636.722656
1940.773438	25817.287109
1939.738281	26130.837891
1938.703125	26003.337891
1937.667969	25747.806641
1936.632813	25492.359375
1935.595703	25525.066406
1934.560547	25671.001953
1933.525391	25907.957031
1932.488281	25768.312500
1931.453125	25328.529297
1930.416016	25705.648438
1929.378906	25664.492188
1928.341797	25832.386719
1927.304688	26078.912109
1926.267578	25946.748047
1925.230469	25568.818359
1924.193359	25785.769531
1923.154297	25452.222656
1922.117188	25917.259766
1921.078125	25650.123047
1920.041016	25886.562500
1919.001953	25779.132813
1917.962891	25892.708984
1916.925781	25748.490234
1915.886719	25827.669922
1914.847656	25685.962891
1913.806641	25924.609375
1912.767578	25949.748047
1911.728516	25835.068359
1910.689453	25955.855469
1909.648438	25659.765625
1908.609375	25709.443359
1907.568359	25668.412109
1906.527344	25997.455078
1905.486328	26309.236328
1904.445313	25944.732422
1903.404297	25744.466797
1902.363281	25813.667969
1901.322266	25936.718750
1900.281250	25841.828125
1899.240234	25974.623047
1898.197266	25887.097656
1897.156250	25875.460938
1896.113281	25995.949219
1895.070313	25906.015625
1894.027344	26019.117188
1892.986328	25970.781250
1891.943359	25714.630859
1890.900391	25901.044922
1889.855469	25808.753906
1888.812500	25758.037109
1887.769531	25748.875000
1886.724609	26079.296875
1885.681641	25835.591797
1884.636719	26046.216797
1883.593750	25956.429688
1882.548828	25781.222656
1881.503906	25918.521484
1880.458984	25989.876953
1879.414063	26180.777344
1878.369141	25925.132813
1877.324219	26257.462891
1876.277344	25589.701172
1875.232422	25573.259766
1874.185547	25981.062500
1873.140625	26025.503906
1872.093750	25753.074219
1871.046875	25890.140625
1870.001953	25737.210938
1868.955078	26000.912109
1867.908203	25677.513672
1866.861328	25646.458984
1865.812500	25664.115234
1864.765625	25796.185547
1863.718750	25935.513672
1862.669922	25972.578125
1861.623047	25681.132813
1860.574219	26248.599609
1859.525391	26013.152344
1858.476563	25911.546875
1857.429688	25904.810547
1856.380859	25866.468750
1855.330078	26129.568359
1854.281250	25950.232422
1853.232422	25634.871094
1852.183594	26070.380859
1851.132813	25998.029297
1850.083984	25903.841797
1849.033203	26152.097656
1847.982422	25764.117188
1846.933594	25910.351563
1845.882813	25954.589844
1844.832031	25828.933594
1843.781250	25783.390625
1842.728516	25749.994141
1841.677734	25922.785156
1840.626953	25654.125000
1839.574219	25678.958984
1838.523438	26006.835938
1837.470703	25903.128906
1836.419922	25557.091797
1835.367188	25877.554688
1834.314453	25836.910156
1833.261719	26149.949219
1832.208984	25569.164063
1831.156250	25838.554688
1830.101563	25751.937500
1829.048828	25728.289063
1827.996094	26096.751953
1826.941406	25647.132813
1825.888672	25848.533203
1824.833984	25774.078125
1823.779297	26067.302734
1822.724609	25971.068359
1821.669922	25841.013672
1820.615234	26109.902344
1819.560547	25750.234375
1818.505859	25985.210938
1817.451172	25855.238281
1816.394531	25657.658203
1815.339844	26015.726563
1814.283203	25866.488281
1813.228516	25927.384766
1812.171875	25867.539063
1811.115234	25940.482422
1810.058594	26109.943359
1809.001953	26069.402344
1807.945313	26161.574219
1806.888672	26039.015625
1805.830078	25952.675781
1804.773438	25863.953125
1803.714844	26069.419922
1802.658203	26171.154297
1801.599609	26113.771484
1800.541016	25890.119141
1799.484375	26203.871094
1798.425781	25674.314453
1797.367188	25812.158203
1796.308594	25976.445313
1795.248047	26041.951172
1794.189453	25962.982422
1793.130859	26319.732422
1792.070313	25937.492188
1791.011719	25848.951172
1789.951172	25839.835938
1788.890625	26023.166016
1787.830078	25992.376953
1786.769531	26194.857422
1785.708984	26161.642578
1784.648438	25993.818359
1783.587891	25970.261719
1782.527344	25917.875000
1781.464844	25995.251953
1780.404297	26022.152344
1779.341797	25916.937500
1778.281250	26183.996094
1777.218750	26095.593750
1776.156250	25940.001953
1775.093750	26259.726563
1774.031250	25928.960938
1772.968750	26032.621094
1771.906250	26100.257813
1770.843750	26093.511719
1769.779297	26204.285156
1768.716797	26276.654297
1767.652344	25967.787109
1766.589844	25829.220703
1765.525391	26404.929688
1764.460938	26484.402344
1763.396484	26048.718750
1762.332031	26104.267578
1761.267578	25846.031250
1760.203125	25896.804688
1759.138672	26019.388672
1758.072266	26058.142578
1757.007813	26049.013672
1755.941406	25968.091797
1754.875000	25741.236328
1753.810547	26406.804688
1752.744141	26115.369141
1751.677734	26046.443359
1750.611328	26379.255859
1749.544922	26056.886719
1748.478516	25976.050781
1747.410156	26227.447266
1746.343750	26072.531250
1745.277344	26072.962891
1744.208984	26085.337891
1743.140625	26157.416016
1742.074219	25895.154297
1741.005859	26284.785156
1739.937500	26349.630859
1738.869141	26166.228516
1737.800781	26383.796875
1736.732422	26035.816406
1735.662109	26415.552734
1734.593750	26289.503906
1733.523438	26292.273438
1732.455078	26340.343750
1731.384766	26366.941406
1730.314453	26119.417969
1729.246094	26589.316406
1728.175781	26384.726563
1727.105469	26346.970703
1726.035156	26618.888672
1724.962891	26905.003906
1723.892578	26714.779297
1722.822266	27153.154297
1721.750000	27089.113281
1720.679688	27122.673828
1719.607422	27834.412109
1718.535156	28288.958984
1717.462891	29518.847656
1716.390625	30220.316406
1715.318359	30560.085938
1714.246094	30222.117188
1713.173828	29789.171875
1712.101563	29228.017578
1711.027344	28091.953125
1709.955078	27588.292969
1708.880859	26875.744141
1707.808594	26707.365234
1706.734375	26330.054688
1705.660156	26762.560547
1704.585938	26485.074219
1703.511719	26392.826172
1702.437500	26666.093750
1701.363281	26410.117188
1700.287109	26040.345703
1699.212891	26389.437500
1698.138672	26173.951172
1697.062500	26065.244141
1695.986328	25899.669922
1694.910156	26139.505859
1693.835938	26094.849609
1692.759766	26201.867188
1691.683594	26263.832031
1690.605469	26155.212891
1689.529297	25904.519531
1688.453125	26463.806641
1687.376953	26336.263672
1686.298828	26073.824219
1685.220703	26206.751953
1684.144531	26216.572266
1683.066406	25779.187500
1681.988281	25959.410156
1680.910156	26146.666016
1679.832031	25972.021484
1678.753906	26111.919922
1677.675781	26353.431641
1676.595703	26285.205078
1675.517578	26271.359375
1674.437500	26229.162109
1673.359375	26205.878906
1672.279297	25922.759766
1671.199219	26031.792969
1670.119141	26459.580078
1669.039063	26134.060547
1667.958984	26505.031250
1666.878906	26696.500000
1665.798828	27189.960938
1664.718750	27086.320313
1663.636719	26893.068359
1662.556641	27270.673828
1661.474609	27787.289063
1660.392578	28282.509766
1659.310547	28032.603516
1658.228516	28197.626953
1657.146484	28251.828125
1656.064453	27299.878906
1654.982422	26739.324219
1653.900391	26906.804688
1652.818359	26829.296875
1651.734375	26323.257813
1650.652344	26441.281250
1649.568359	26232.066406
1648.484375	26147.660156
1647.400391	26176.230469
1646.316406	26023.630859
1645.232422	25944.001953
1644.148438	26043.148438
1643.064453	26384.470703
1641.980469	26156.697266
1640.894531	26175.828125
1639.810547	26213.755859
1638.724609	26195.271484
1637.640625	25934.783203
1636.554688	26357.998047
1635.468750	26487.468750
1634.382813	26410.236328
1633.296875	26297.808594
1632.210938	26535.212891
1631.125000	26568.328125
1630.037109	26601.431641
1628.951172	26826.931641
1627.863281	26909.246094
1626.777344	26914.125000
1625.689453	27040.955078
1624.601563	27324.849609
1623.513672	27460.945313
1622.425781	27836.091797
1621.337891	27690.808594
1620.250000	28049.386719
1619.162109	28358.640625
1618.074219	28372.634766
1616.984375	29229.787109
1615.896484	29466.093750
1614.806641	29568.861328
1613.716797	29191.699219
1612.626953	29015.949219
1611.539063	28674.107422
1610.449219	28156.892578
1609.357422	28496.068359
1608.267578	28435.160156
1607.177734	28732.078125
1606.087891	29725.681641
1604.996094	30120.470703
1603.906250	30989.623047
1602.814453	31585.050781
1601.722656	32019.050781
1600.630859	31901.546875
1599.539063	31977.957031
1598.447266	32030.988281
1597.355469	31329.767578
1596.263672	31282.494141
1595.171875	30432.238281
1594.078125	29600.935547
1592.986328	28711.574219
1591.892578	28095.484375
1590.800781	27360.630859
1589.707031	27080.830078
1588.613281	27045.976563
1587.519531	26852.587891
1586.425781	26822.443359
1585.332031	26608.179688
1584.236328	27072.126953
1583.142578	27088.560547
1582.048828	27400.845703
1580.953125	27126.064453
1579.857422	26907.265625
1578.763672	26856.185547
1577.667969	26514.117188
1576.572266	26411.910156
1575.476563	26037.447266
1574.380859	26198.291016
1573.285156	25595.990234
1572.187500	25819.656250
1571.091797	25633.921875
1569.996094	25431.972656
1568.898438	25557.904297
1567.800781	25469.933594
1566.705078	25261.138672
1565.607422	25579.904297
1564.509766	25196.906250
1563.412109	25562.033203
1562.314453	25511.292969
1561.214844	25390.904297
1560.117188	25291.451172
1559.019531	25380.066406
1557.919922	25340.992188
1556.822266	25095.396484
1555.722656	25381.216797
1554.623047	25330.562500
1553.523438	25516.507813
1552.423828	25449.611328
1551.324219	25545.046875
1550.224609	25454.982422
1549.125000	25578.197266
1548.023438	25620.255859
1546.923828	25300.824219
1545.822266	25472.652344
1544.722656	25486.908203
1543.621094	25244.085938
1542.519531	25443.621094
1541.417969	25251.818359
1540.316406	24979.062500
1539.214844	25044.302734
1538.113281	24984.562500
1537.011719	24964.171875
1535.908203	24811.933594
1534.806641	24752.259766
1533.703125	25138.912109
1532.599609	25123.130859
1531.498047	24788.341797
1530.394531	25091.583984
1529.291016	24662.160156
1528.187500	24912.177734
1527.083984	24873.341797
1525.978516	24809.111328
1524.875000	24814.183594
1523.771484	24863.123047
1522.666016	24722.740234
1521.560547	24503.923828
1520.457031	24608.275391
1519.351563	24544.150391
1518.246094	24692.292969
1517.140625	24881.904297
1516.035156	24580.214844
1514.929688	25011.898438
1513.822266	24959.279297
1512.716797	24634.677734
1511.609375	24784.955078
1510.503906	24672.486328
1509.396484	24613.046875
1508.289063	24378.554688
1507.181641	25053.894531
1506.074219	24342.730469
1504.966797	24812.933594
1503.859375	24661.433594
1502.751953	24567.527344
1501.644531	24676.158203
1500.535156	24754.841797
1499.427734	24640.257813
1498.318359	24620.015625
1497.208984	24694.068359
1496.099609	24436.994141
1494.992188	24478.863281
1493.882813	24497.734375
1492.771484	24314.359375
1491.662109	24372.312500
1490.552734	24303.888672
1489.443359	24251.564453
1488.332031	24550.638672
1487.220703	24498.289063
1486.111328	24464.324219
1485.000000	24414.302734
1483.888672	24297.738281
1482.777344	24764.060547
1481.666016	24739.246094
1480.554688	24001.039063
1479.443359	24618.542969
1478.330078	24726.765625
1477.218750	24718.021484
1476.105469	24564.861328
1474.994141	24624.904297
1473.880859	25065.328125
1472.767578	24976.337891
1471.654297	25125.619141
1470.541016	25561.154297
1469.427734	25428.611328
1468.314453	25678.484375
1467.199219	25665.007813
1466.085938	25779.710938
1464.972656	25798.257813
1463.857422	25446.123047
1462.742188	25288.562500
1461.626953	25398.673828
1460.513672	25897.531250
1459.398438	25881.740234
1458.283203	26158.583984
1457.166016	25969.031250
1456.050781	26675.425781
1454.935547	27050.251953
1453.818359	27157.646484
1452.703125	27721.857422
1451.585938	27427.136719
1450.468750	27301.494141
1449.351563	27271.783203
1448.234375	26956.740234
1447.117188	26637.238281
1446.000000	26596.242188
1444.882813	26822.203125
1443.765625	26751.531250
1442.646484	26867.910156
1441.529297	27107.390625
1440.410156	27157.544922
1439.291016	27529.115234
1438.173828	27772.919922
1437.054688	27367.156250
1435.935547	26858.998047
1434.816406	26294.056641
1433.695313	25786.248047
1432.576172	25176.128906
1431.457031	25055.761719
1430.335938	25067.476563
1429.216797	24837.910156
1428.095703	24442.283203
1426.974609	24335.771484
1425.853516	24552.351563
1424.732422	24216.111328
1423.611328	24350.763672
1422.490234	24264.798828
1421.369141	24190.230469
1420.246094	24222.523438
1419.125000	24245.714844
1418.001953	23782.609375
1416.880859	24171.656250
1415.757813	24088.074219
1414.634766	24574.597656
1413.511719	24811.164063
1412.388672	25163.443359
1411.265625	25240.923828
1410.142578	25844.945313
1409.019531	25438.921875
1407.894531	25613.876953
1406.771484	25455.296875
1405.646484	25072.222656
1404.521484	25312.916016
1403.396484	25623.814453
1402.271484	24925.789063
1401.146484	25019.050781
1400.021484	24858.458984
1398.896484	24407.892578
1397.771484	24315.421875
1396.644531	24275.078125
1395.519531	24345.720703
1394.392578	24260.097656
1393.267578	24326.187500
1392.140625	24693.310547
1391.013672	24919.990234
1389.886719	24626.146484
1388.759766	25171.761719
1387.632813	25235.376953
1386.505859	25357.771484
1385.376953	25188.419922
1384.250000	25724.523438
1383.121094	25656.888672
1381.992188	25532.771484
1380.865234	25903.583984
1379.736328	25560.304688
1378.607422	25761.560547
1377.478516	25359.697266
1376.349609	25391.548828
1375.218750	25229.212891
1374.089844	25008.236328
1372.960938	25022.072266
1371.830078	24672.572266
1370.699219	24510.464844
1369.570313	24348.410156
1368.439453	24531.511719
1367.308594	24414.611328
1366.177734	24225.595703
1365.046875	23980.281250
1363.916016	24253.480469
1362.783203	24238.115234
1361.652344	24200.224609
1360.519531	24540.830078
1359.388672	24770.947266
1358.255859	25246.470703
1357.123047	25661.033203
1355.990234	25701.726563
1354.857422	25683.878906
1353.724609	25828.082031
1352.591797	25504.185547
1351.458984	25423.382813
1350.324219	25074.917969
1349.191406	25095.421875
1348.056641	25495.951172
1346.921875	25273.554688
1345.789063	25069.216797
1344.654297	25139.150391
1343.519531	24952.878906
1342.384766	24861.037109
1341.248047	24620.960938
1340.113281	24291.121094
1338.978516	24105.115234
1337.841797	23667.699219
1336.707031	23816.353516
1335.570313	23275.882813
1334.433594	23424.552734
1333.296875	23191.726563
1332.160156	22985.900391
1331.023438	23080.707031
1329.886719	23074.562500
1328.750000	23169.322266
1327.613281	23116.083984
1326.474609	23293.738281
1325.337891	22960.353516
1324.199219	23102.119141
1323.060547	23048.925781
1321.921875	23253.347656
1320.783203	23554.001953
1319.644531	23637.349609
1318.505859	23765.443359
1317.367188	24112.865234
1316.226563	24240.833984
1315.087891	25205.667969
1313.947266	25429.613281
1312.808594	26355.886719
1311.667969	26631.001953
1310.527344	27046.904297
1309.386719	27138.468750
1308.246094	26666.667969
1307.105469	25993.871094
1305.964844	25151.462891
1304.822266	24472.445313
1303.681641	23860.673828
1302.541016	23646.681641
1301.398438	23419.361328
1300.255859	23424.330078
1299.113281	22940.394531
1297.970703	23449.882813
1296.828125	23597.667969
1295.685547	23943.986328
1294.542969	24116.175781
1293.400391	24457.828125
1292.255859	24589.726563
1291.113281	24897.734375
1289.968750	25214.552734
1288.824219	24949.488281
1287.681641	24671.140625
1286.537109	24056.417969
1285.392578	23836.238281
1284.246094	23930.214844
1283.101563	23338.197266
1281.957031	23367.646484
1280.810547	22978.525391
1279.666016	23377.541016
1278.519531	23184.404297
1277.375000	23930.388672
1276.228516	24137.699219
1275.082031	24211.466797
1273.935547	24572.123047
1272.789063	24954.892578
1271.642578	25555.421875
1270.494141	25717.818359
1269.347656	25929.054688
1268.199219	25804.662109
1267.052734	25620.318359
1265.904297	25040.613281
1264.755859	24587.705078
1263.607422	24226.000000
1262.458984	23615.738281
1261.310547	23294.279297
1260.162109	22955.169922
1259.013672	22727.138672
1257.863281	22579.060547
1256.714844	22504.242188
1255.564453	22269.746094
1254.414063	22387.947266
1253.265625	22149.113281
1252.115234	22508.941406
1250.964844	22121.654297
1249.812500	22281.906250
1248.662109	22302.501953
1247.511719	22159.146484
1246.361328	22266.144531
1245.208984	22169.351563
1244.056641	22285.166016
1242.906250	22270.318359
1241.753906	22361.726563
1240.601563	22280.472656
1239.449219	22382.910156
1238.296875	21978.658203
1237.144531	22216.048828
1235.990234	22258.726563
1234.837891	22100.156250
1233.683594	22386.044922
1232.531250	22015.289063
1231.376953	21982.822266
1230.222656	22005.611328
1229.068359	21783.140625
1227.914063	22020.236328
1226.759766	21813.298828
1225.605469	22143.056641
1224.451172	22145.923828
1223.294922	22566.025391
1222.140625	22471.699219
1220.984375	22734.914063
1219.828125	22925.226563
1218.673828	23393.439453
1217.517578	23499.755859
1216.361328	23883.908203
1215.205078	23798.271484
1214.046875	23686.205078
1212.890625	24189.156250
1211.734375	23922.792969
1210.576172	24291.119141
1209.419922	24743.037109
1208.261719	24886.419922
1207.103516	24868.980469
1205.945313	24719.427734
1204.787109	24695.416016
1203.628906	24957.572266
1202.470703	24750.855469
1201.310547	24205.333984
1200.152344	24379.431641
1198.992188	23559.189453
1197.833984	23198.890625
1196.673828	23131.179688
1195.513672	22828.240234
1194.353516	22907.894531
1193.193359	22631.468750
1192.033203	22625.425781
1190.873047	22098.667969
1189.712891	21840.089844
1188.550781	21777.078125
1187.390625	21531.818359
1186.228516	21435.943359
1185.066406	21845.009766
1183.904297	21562.546875
1182.742188	22234.792969
1181.580078	22531.611328
1180.417969	22150.455078
1179.255859	22017.281250
1178.093750	21515.722656
1176.929688	21086.693359
1175.767578	20872.650391
1174.603516	20798.962891
1173.439453	20510.527344
1172.275391	20962.802734
1171.113281	20691.962891
1169.947266	20881.201172
1168.783203	21011.244141
1167.619141	20887.240234
1166.455078	21025.994141
1165.289063	21129.675781
1164.125000	21248.642578
1162.958984	20934.306641
1161.792969	21291.736328
1160.626953	21395.298828
1159.460938	22150.572266
1158.294922	21890.960938
1157.128906	22005.300781
1155.962891	21671.478516
1154.796875	21597.855469
1153.628906	20792.210938
1152.462891	20454.394531
1151.294922	20295.818359
1150.126953	20231.212891
1148.958984	20081.460938
1147.791016	19997.261719
1146.623047	20033.152344
1145.455078	19857.318359
1144.287109	19965.232422
1143.117188	19811.287109
1141.949219	19954.076172
1140.779297	19948.500000
1139.609375	19960.369141
1138.441406	19845.773438
1137.271484	20088.736328
1136.101563	20091.855469
1134.931641	20722.601563
1133.759766	20836.734375
1132.589844	20990.041016
1131.419922	21489.621094
1130.248047	21786.496094
1129.078125	22007.060547
1127.906250	21724.652344
1126.734375	21799.314453
1125.562500	21599.734375
1124.390625	21548.187500
1123.218750	21398.755859
1122.046875	21131.914063
1120.875000	20926.058594
1119.701172	20459.337891
1118.529297	19853.634766
1117.355469	20169.789063
1116.181641	19781.673828
1115.007813	20034.712891
1113.833984	19829.250000
1112.660156	19582.583984
1111.486328	19842.041016
1110.312500	19938.548828
1109.138672	19559.550781
1107.962891	19499.779297
1106.789063	19502.966797
1105.613281	19655.884766
1104.437500	19659.044922
1103.261719	19922.513672
1102.085938	19502.691406
1100.910156	19746.580078
1099.734375	19738.876953
1098.558594	19588.103516
1097.380859	19521.910156
1096.205078	19880.480469
1095.027344	20247.593750
1093.851563	20196.482422
1092.673828	20392.306641
1091.496094	20735.322266
1090.318359	21223.287109
1089.140625	21451.304688
1087.962891	21047.222656
1086.783203	21039.306641
1085.605469	20434.203125
1084.427734	20197.076172
1083.248047	20068.179688
1082.068359	19893.910156
1080.888672	19648.347656
1079.708984	19683.910156
1078.529297	19548.701172
1077.349609	19353.025391
1076.169922	19252.488281
1074.990234	19339.941406
1073.808594	18991.037109
1072.628906	18989.957031
1071.447266	19140.027344
1070.265625	19328.908203
1069.085938	19420.585938
1067.904297	19477.703125
1066.722656	19664.267578
1065.539063	20252.056641
1064.357422	20384.498047
1063.175781	20836.087891
1061.992188	20847.625000
1060.810547	20462.458984
1059.626953	20301.605469
1058.443359	20069.685547
1057.259766	19863.701172
1056.076172	19817.220703
1054.892578	19960.318359
1053.708984	20122.751953
1052.525391	20231.294922
1051.339844	20105.117188
1050.156250	20530.068359
1048.970703	20362.986328
1047.787109	19787.093750
1046.601563	19665.378906
1045.416016	19623.298828
1044.230469	19308.078125
1043.044922	19586.492188
1041.859375	19464.890625
1040.671875	19545.406250
1039.486328	19468.990234
1038.298828	19242.167969
1037.113281	19318.380859
1035.925781	19315.082031
1034.738281	19363.332031
1033.550781	19302.041016
1032.363281	19474.810547
1031.175781	19688.310547
1029.988281	20163.601563
1028.798828	20456.314453
1027.611328	21323.974609
1026.421875	22118.394531
1025.232422	22966.167969
1024.044922	22820.699219
1022.855469	21774.701172
1021.666016	20557.550781
1020.476563	19677.345703
1019.287109	18977.462891
1018.095703	18515.666016
1016.906250	18266.125000
1015.714844	18511.480469
1014.525391	18221.332031
1013.333984	18228.923828
1012.142578	18444.181641
1010.951172	18023.617188
1009.759766	18343.707031
1008.568359	18597.351563
1007.376953	19081.972656
1006.183594	19970.716797
1004.992188	22582.984375
1003.798828	27024.808594
1002.607422	31281.244141
1001.414063	34433.195313
1000.220703	33514.687500
999.027344	29933.898438
997.833984	24850.201172
996.640625	21475.052734
995.447266	19758.453125
994.251953	18875.267578
993.058594	18662.798828
991.863281	19131.380859
990.667969	19352.214844
989.474609	19097.093750
988.279297	18536.949219
987.083984	18514.578125
985.888672	18359.974609
984.691406	18036.951172
983.496094	17876.085938
982.300781	17958.296875
981.103516	17584.353516
979.906250	17681.505859
978.710938	17763.707031
977.513672	17505.025391
976.316406	17787.445313
975.119141	17737.548828
973.921875	17677.023438
972.722656	17737.863281
971.525391	17817.839844
970.326172	17942.478516
969.128906	18175.589844
967.929688	18206.517578
966.730469	18594.779297
965.531250	18632.001953
964.332031	19026.435547
963.132813	19106.089844
961.933594	19659.726563
960.734375	19530.970703
959.533203	19368.259766
958.333984	19356.443359
957.132813	19206.560547
955.931641	18835.855469
954.730469	18588.435547
953.529297	18581.005859
952.328125	18565.085938
951.126953	18642.552734
949.925781	18009.134766
948.724609	18177.898438
947.521484	17578.716797
946.318359	17770.824219
945.117188	17456.062500
943.914063	17393.707031
942.710938	17534.873047
941.507813	17584.851563
940.304688	18151.865234
939.101563	18235.621094
937.896484	18372.304688
936.693359	18506.824219
935.488281	18351.183594
934.285156	18254.878906
933.080078	18319.488281
931.875000	17937.490234
930.669922	17792.632813
929.464844	17990.582031
928.259766	18114.423828
927.054688	17918.845703
925.847656	18158.964844
924.642578	17756.240234
923.435547	17746.851563
922.228516	17483.833984
921.023438	17320.228516
919.816406	17044.693359
918.609375	17179.083984
917.402344	17150.791016
916.193359	17213.314453
914.986328	16921.093750
913.777344	17148.298828
912.570313	17208.677734
911.361328	17028.455078
910.152344	17059.294922
908.945313	16929.789063
907.736328	16705.410156
906.527344	16774.246094
905.316406	16644.855469
904.107422	16690.486328
902.898438	16904.728516
901.687500	16927.115234
900.478516	16791.462891
899.267578	17087.736328
898.056641	16954.208984
896.845703	16778.605469
895.634766	16918.908203
894.423828	16768.634766
893.212891	16500.533203
892.000000	16356.694336
890.789063	16711.601563
889.576172	16412.089844
888.363281	16428.203125
887.152344	16416.968750
885.939453	16788.441406
884.726563	16522.757813
883.513672	16707.000000
882.298828	16741.960938
881.085938	16915.595703
879.873047	16889.580078
878.658203	17317.300781
877.443359	17452.941406
876.230469	17592.734375
875.015625	17255.888672
873.800781	16988.431641
872.585938	16842.794922
871.371094	16474.773438
870.154297	16335.568359
868.939453	16540.433594
867.722656	16231.378906
866.507813	16417.318359
865.291016	16500.458984
864.074219	16487.140625
862.857422	16444.484375
861.640625	16144.090820
860.423828	16250.264648
859.207031	16293.557617
857.990234	16225.828125
856.771484	16271.203125
855.554688	16391.937500
854.335938	16075.110352
853.117188	16076.532227
851.898438	16274.664063
850.679688	16378.573242
849.460938	16430.146484
848.242188	16427.322266
847.023438	16355.486328
845.802734	16375.672852
844.583984	16042.555664
843.363281	16131.762695
842.142578	16120.628906
840.921875	16155.465820
839.701172	16148.507813
838.480469	16271.052734
837.259766	15846.406250
836.039063	16100.502930
834.816406	16020.490234
833.595703	15683.769531
832.373047	16075.498047
831.152344	15995.529297
829.929688	16190.964844
828.707031	16459.337891
827.484375	16535.751953
826.261719	17087.548828
825.037109	18131.156250
823.814453	19009.738281
822.591797	19552.484375
821.367188	19447.017578
820.142578	19147.837891
818.917969	18280.111328
817.695313	17525.142578
816.470703	17114.003906
815.244141	16830.001953
814.019531	17010.279297
812.794922	17121.814453
811.568359	17272.845703
810.343750	17072.228516
809.117188	17008.964844
807.890625	16544.333984
806.666016	16125.607422
805.439453	15946.112305
804.210938	16248.929688
802.984375	16079.866211
801.757813	16214.241211
800.531250	16284.163086
799.302734	16410.146484
798.074219	16837.232422
796.847656	16921.544922
795.619141	17196.833984
794.390625	16814.000000
793.162109	16678.273438
791.933594	16343.385742
790.703125	16394.511719
789.474609	16140.687500
788.244141	16208.421875
787.015625	15832.370117
785.785156	15985.138672
784.554688	16040.425781
783.324219	15857.345703
782.093750	15825.600586
780.863281	15870.525391
779.632813	15921.648438
778.400391	15846.413086
777.169922	16367.592773
775.937500	16045.922852
774.707031	16395.070313
773.474609	16831.025391
772.242188	16995.742188
771.009766	17956.970703
769.777344	18715.138672
768.544922	19348.947266
767.310547	20416.804688
766.078125	22121.109375
764.843750	23797.951172
763.609375	25308.865234
762.376953	26744.861328
761.142578	26703.056641
759.908203	25545.730469
758.673828	23395.322266
757.437500	21600.851563
756.203125	20261.242188
754.968750	19830.417969
753.732422	19635.042969
752.496094	19691.500000
751.261719	19362.097656
750.025391	19030.748047
748.789063	18400.433594
747.552734	17727.027344
746.316406	17530.150391
745.078125	17040.603516
743.841797	16664.589844
742.603516	16270.157227
741.367188	16135.478516
740.128906	15897.839844
738.890625	15606.730469
737.652344	15682.291992
736.414063	15617.813477
735.175781	15306.313477
733.935547	15316.020508
732.697266	15336.012695
731.458984	15415.668945
730.218750	15645.476563
728.978516	15579.009766
727.738281	15808.708984
726.498047	15923.181641
725.257813	16362.436523
724.017578	16581.601563
722.777344	16850.013672
721.535156	16327.245117
720.294922	15989.553711
719.052734	15497.922852
717.812500	15431.580078
716.570313	15118.856445
715.328125	15223.000000
714.085938	15056.157227
712.843750	14671.829102
711.599609	14755.474609
710.357422	14929.360352
709.113281	14809.859375
707.871094	14985.724609
706.626953	14864.204102
705.382813	15009.246094
704.138672	14836.517578
702.894531	15032.749023
701.650391	14808.847656
700.406250	14929.210938
699.160156	14910.243164
697.916016	14717.197266
696.669922	14802.702148
695.425781	14685.491211
694.179688	14789.394531
692.933594	14913.726563
691.687500	14698.335938
690.441406	14742.848633
689.193359	14887.579102
687.947266	14852.280273
686.701172	14667.718750
685.453125	14838.963867
684.205078	14537.951172
682.957031	14805.215820
681.710938	14808.785156
680.462891	14636.646484
679.212891	14609.600586
677.964844	14717.361328
676.716797	14302.325195
675.466797	14534.641602
674.218750	14448.432617
672.968750	14545.938477
671.718750	14582.192383
670.468750	14447.051758
669.218750	14377.233398
667.968750	14437.970703
666.718750	14447.706055
665.466797	14267.825195
664.216797	14395.818359
662.964844	14405.554688
661.714844	14504.949219
660.462891	14351.667969
659.210938	14412.332031
657.958984	14442.422852
656.707031	14189.448242
655.455078	14243.999023
654.201172	14210.997070
652.949219	14210.570313
651.695313	14334.276367
650.441406	14500.666016
649.189453	14254.042969
647.935547	14310.556641
646.681641	14560.238281
645.427734	14352.362305
644.171875	14435.254883
642.917969	14219.340820
641.662109	14426.187500
640.408203	14472.451172
639.152344	14382.590820
637.896484	14587.269531
636.640625	14623.325195
635.384766	14675.610352
634.128906	14675.096680
632.873047	14741.561523
631.617188	14586.806641
630.359375	14521.379883
629.103516	14492.490234
627.845703	14625.872070
626.587891	14615.223633
625.330078	14825.584961
624.072266	15234.539063
622.814453	15949.407227
621.556641	16793.724609
620.296875	17015.716797
619.039063	16872.984375
617.779297	16452.812500
616.521484	15639.915039
615.261719	14938.661133
614.001953	14512.968750
612.742188	14370.791016
611.482422	14309.611328
610.220703	14127.049805
608.960938	14100.323242
607.699219	14273.846680
606.439453	14186.433594
605.177734	14537.812500
603.916016	14438.253906
602.654297	14730.849609
601.392578	14780.836914
600.130859	15374.332031
598.869141	15115.098633
597.607422	15187.209961
596.343750	14839.240234
595.080078	14600.424805
593.818359	14218.356445
592.554688	14203.777344
591.291016	14229.565430
590.027344	14114.100586
588.763672	14222.606445
587.498047	14258.460938
586.234375	13999.865234
584.970703	14116.398438
583.705078	14103.866211
582.439453	14006.682617
581.173828	14048.585938
579.908203	14138.833008
578.642578	14063.851563
577.376953	14079.537109
576.111328	14022.715820
574.843750	13959.874023
573.578125	13725.931641
572.310547	13886.586914
571.042969	13719.150391
569.777344	13740.912109
568.509766	13983.962891
567.242188	13649.645508
565.972656	13731.739258
564.705078	13864.072266
563.437500	13749.081055
562.167969	13678.349609
560.898438	13844.786133
559.630859	14204.062500
558.361328	14400.483398
557.091797	14347.764648
555.822266	14668.605469
554.550781	14447.189453
553.281250	14193.727539
552.011719	14024.658203
550.740234	13789.418945
549.468750	13684.686523
548.199219	13431.531250
546.927734	13728.068359
545.656250	13491.036133
544.384766	13568.896484
543.111328	13319.945313
541.839844	13455.935547
540.568359	13259.196289
539.294922	13112.619141
538.021484	13440.901367
536.750000	13452.584961
535.476563	13458.254883
534.203125	13365.806641
532.927734	13417.536133
531.654297	13389.179688
530.380859	13326.809570
529.105469	13500.576172
527.832031	13654.275391
526.556641	13301.850586
525.281250	13213.539063
524.005859	13455.187500
522.730469	13444.848633
521.455078	13368.549805
520.179688	13228.323242
518.902344	13164.077148
517.626953	13231.708984
516.349609	13453.125000
515.074219	13392.865234
513.796875	13386.540039
512.519531	13356.258789
511.242188	13397.846680
509.964844	13471.352539
508.685547	13730.405273
507.408203	13578.383789
506.128906	13695.702148
504.851563	13727.220703
503.572266	14075.777344
502.292969	13856.014648
501.013672	14062.900391
499.734375	14086.359375
498.455078	14167.595703
497.173828	14378.300781
495.894531	14626.779297
494.613281	14994.666016
493.333984	15284.765625
492.052734	15353.774414
490.771484	14990.809570
489.490234	14765.294922
488.208984	14508.020508
486.927734	14083.715820
485.644531	14204.588867
484.363281	13698.943359
483.080078	13730.359375
481.796875	13761.763672
480.515625	13489.027344
479.232422	13375.379883
477.949219	13363.112305
476.666016	13428.331055
475.380859	13179.677734
474.097656	13113.826172
472.812500	13020.197266
471.529297	12992.117188
470.244141	12892.585938
468.958984	13326.961914
467.673828	13124.222656
466.388672	13072.333984
465.103516	13377.514648
463.818359	13299.816406
462.531250	13432.334961
461.246094	13491.451172
459.958984	13849.864258
458.671875	13895.012695
457.384766	13890.606445
456.097656	13594.965820
454.810547	13374.700195
453.523438	13136.685547
452.236328	13166.076172
450.947266	12908.381836
449.660156	12929.882813
448.371094	13064.184570
447.082031	12731.449219
445.792969	12762.859375
444.503906	12626.122070
443.214844	12625.895508
441.925781	12730.470703
440.634766	12546.359375
439.345703	12696.374023
438.054688	12664.511719
436.765625	12522.003906
435.474609	12610.697266
434.183594	12486.025391
432.892578	12586.542969
431.601563	12446.120117
430.308594	12544.635742
429.017578	12674.698242
427.724609	12461.309570
426.433594	12611.073242
425.140625	12372.120117
423.847656	12535.654297
422.554688	12559.103516
421.261719	12777.758789
419.968750	12643.433594
418.673828	12861.997070
417.380859	12713.907227
416.085938	12814.151367
414.792969	12841.463867
413.498047	12927.861328
412.203125	12787.739258
410.908203	12895.774414
409.613281	12889.583008
408.316406	13017.246094
407.021484	12912.629883
405.726563	12882.823242
404.429688	12986.810547
403.132813	12640.305664
401.835938	12699.063477
400.539063	12789.261719
399.242188	12639.573242
397.945313	12861.450195
396.648438	12870.993164
395.349609	13163.491211
394.052734	13505.002930
392.753906	13453.533203
391.455078	13637.755859
390.158203	13658.933594
388.857422	13689.919922
387.558594	13646.302734
386.259766	13598.776367
384.960938	13423.718750
383.660156	13285.999023
382.361328	13152.250000
381.060547	13246.047852
379.759766	12945.676758
378.458984	12890.477539
377.158203	12707.883789
375.857422	12778.173828
374.556641	12581.947266
373.253906	12571.908203
371.953125	12604.965820
370.650391	12620.385742
369.347656	12659.296875
368.044922	12414.315430
366.742188	12643.119141
365.439453	12550.878906
364.136719	12444.973633
362.833984	12346.929688
361.529297	12374.108398
360.226563	12428.657227
358.921875	12401.060547
357.617188	12242.485352
356.312500	12402.581055
355.007813	12519.625000
353.703125	12409.960938
352.398438	12634.413086
351.091797	12677.125977
349.787109	12809.661133
348.480469	12832.801758
347.175781	12832.504883
345.869141	12728.754883
344.562500	12710.911133
343.255859	12757.465820
341.947266	12632.320313
340.640625	12193.172852
339.333984	12220.290039
338.025391	12048.505859
336.716797	11956.713867
335.410156	12046.231445
334.101563	11909.646484
332.792969	11866.638672
331.482422	11734.029297
330.173828	11887.800781
328.865234	11714.333984
327.554688	11885.579102
326.246094	11694.651367
324.935547	11869.732422
323.625000	11957.173828
322.314453	11941.456055
321.003906	11941.306641
319.693359	11875.022461
318.380859	12154.934570
317.070313	11964.190430
315.757813	12065.129883
314.447266	12457.597656
313.134766	12399.052734
311.822266	12439.625000
310.509766	12215.969727
309.197266	12320.658203
307.884766	12213.625000
306.570313	12127.987305
305.257813	12116.152344
303.943359	12261.544922
302.628906	12040.093750
301.314453	12332.915039
300.000000	12179.428711
298.685547	12388.714844
297.371094	12433.084961
296.056641	12586.021484
294.740234	12577.996094
293.425781	12678.518555
292.109375	12643.346680
290.792969	12059.835938
289.476563	12212.702148
288.160156	12113.708984
286.843750	12059.293945
285.527344	11803.523438
284.208984	11708.525391
282.892578	11545.815430
281.574219	11696.671875
280.255859	11572.717773
278.939453	11539.731445
277.621094	11700.179688
276.300781	11736.801758
274.982422	11581.989258
273.664063	11842.871094
272.343750	11807.931641
271.025391	12130.522461
269.705078	12329.338867
268.384766	12213.192383
267.064453	12230.361328
265.744141	12162.551758
264.423828	12148.829102
263.103516	12233.565430
261.781250	12295.110352
260.460938	12260.142578
259.138672	12161.512695
257.816406	12167.090820
256.494141	12220.886719
255.171875	12415.441406
253.849609	12384.336914
252.527344	12507.464844
251.205078	12663.315430
249.880859	12695.776367
248.558594	13211.843750
247.234375	13409.869141
245.910156	13594.340820
244.585938	13911.624023
243.261719	14223.019531
241.937500	14568.955078
240.611328	14841.628906
239.287109	15524.103516
237.960938	15681.068359
236.636719	15974.562500
235.310547	16131.391602
233.984375	16507.392578
232.658203	16364.129883
231.332031	16165.168945
230.003906	15889.395508
228.677734	15296.640625
227.351563	14990.375000
226.023438	14638.112305
224.695313	14182.255859
223.367188	14045.335938
222.039063	13687.664063
220.710938	13790.834961
219.382813	13575.362305
218.054688	13532.672852
216.724609	13430.520508
215.394531	13525.989258
214.066406	13429.626953
212.736328	13486.708008
211.406250	13459.408203
210.076172	13736.913086
208.746094	13675.078125
207.414063	13655.422852
206.083984	13547.640625
204.751953	13654.443359
203.421875	13531.375977
202.089844	13469.628906
200.757813	13317.916992
199.425781	13351.941406
198.093750	13114.175781
196.759766	13173.099609
195.427734	13063.636719
194.095703	13231.583008
192.761719	13277.065430
191.427734	13234.568359
190.093750	13169.142578
188.759766	13229.902344
187.425781	13254.327148
186.091797	13269.188477
184.757813	13477.009766
183.421875	13365.751953
182.085938	13489.446289
180.751953	13613.097656
179.416016	13562.966797
178.080078	14007.249023
176.744141	14050.583984
175.408203	14214.118164
174.070313	14369.962891
172.734375	14203.381836
171.396484	14462.160156
170.060547	14484.398438
168.722656	14237.809570
167.384766	14151.426758
166.046875	14434.805664
164.708984	14765.720703
163.369141	14810.744141
162.031250	14966.231445
160.691406	15565.410156
159.353516	15638.829102
158.013672	15973.045898
156.673828	16143.443359
155.333984	16290.942383
153.994141	16328.026367
152.654297	16570.562500
151.312500	16213.839844
149.972656	15665.160156
148.630859	15557.813477
147.289063	15332.633789
145.947266	15160.755859
144.605469	14874.910156
143.263672	14788.677734
141.921875	14938.049805
140.580078	15315.302734
139.236328	15582.272461
137.894531	16004.847656
136.550781	16729.126953
135.207031	17779.625000
133.863281	18725.373047
132.519531	19443.091797
131.175781	20143.484375
129.832031	20900.531250
128.486328	21384.222656
127.142578	21898.080078
125.796875	22305.591797
124.451172	23344.136719
123.105469	24685.531250
121.759766	25484.546875
120.414063	26118.464844
119.068359	26636.617188
117.720703	26522.072266
116.375000	25474.107422
115.027344	24155.800781
113.679688	22025.968750
112.332031	19703.863281
110.984375	17431.769531
109.636719	14776.455078
108.289063	12424.705078
106.939453	10172.122070
105.591797	8181.258301
104.242188	6576.742188
102.892578	5180.702148
