#Wave		#Intensity
3203.346680	18093.513672
3202.517578	17361.531250
3201.688477	17349.511719
3200.858398	17349.791016
3200.029297	17199.443359
3199.199219	17092.171875
3198.370117	17553.455078
3197.540039	17344.765625
3196.709961	17630.750000
3195.879883	17388.326172
3195.048828	17523.726563
3194.218750	17232.267578
3193.387695	17389.138672
3192.557617	17248.205078
3191.726563	17595.308594
3190.895508	17141.384766
3190.064453	17555.892578
3189.233398	17175.744141
3188.401367	17415.283203
3187.570313	17167.146484
3186.738281	17063.199219
3185.907227	17550.957031
3185.075195	17060.769531
3184.243164	17220.449219
3183.411133	17373.949219
3182.578125	17478.380859
3181.746094	17500.072266
3180.913086	17249.173828
3180.080078	17283.142578
3179.248047	17145.642578
3178.415039	17237.779297
3177.581055	17063.603516
3176.748047	17275.072266
3175.915039	17021.388672
3175.081055	17523.425781
3174.248047	17092.376953
3173.414063	17263.945313
3172.580078	17245.875000
3171.746094	17392.904297
3170.912109	17176.126953
3170.077148	17240.599609
3169.243164	17360.054688
3168.408203	17088.390625
3167.573242	17326.968750
3166.738281	17366.939453
3165.903320	17290.849609
3165.068359	17065.169922
3164.233398	16992.205078
3163.397461	17245.867188
3162.562500	17151.533203
3161.726563	16892.453125
3160.890625	17432.791016
3160.054688	17097.488281
3159.218750	17244.179688
3158.382813	17091.980469
3157.545898	17305.701172
3156.709961	16995.021484
3155.873047	17226.974609
3155.036133	17227.246094
3154.199219	17209.236328
3153.362305	17218.650391
3152.525391	17225.013672
3151.687500	17188.738281
3150.850586	17018.494141
3150.012695	17332.380859
3149.174805	17271.751953
3148.336914	17116.792969
3147.499023	17031.873047
3146.661133	17318.171875
3145.823242	17135.900391
3144.984375	16950.644531
3144.145508	17106.048828
3143.307617	17194.511719
3142.468750	17243.421875
3141.629883	17082.583984
3140.790039	16854.937500
3139.951172	17122.658203
3139.112305	17159.394531
3138.272461	17278.136719
3137.432617	17184.238281
3136.592773	16941.572266
3135.752930	17227.279297
3134.913086	17078.789063
3134.073242	17258.148438
3133.232422	17124.875000
3132.392578	17100.876953
3131.551758	17173.962891
3130.710938	17092.332031
3129.870117	16986.462891
3129.029297	16989.791016
3128.188477	17132.578125
3127.346680	17257.130859
3126.505859	17148.271484
3125.664063	17169.750000
3124.822266	17215.460938
3123.980469	17006.691406
3123.138672	17052.412109
3122.296875	17319.187500
3121.455078	17231.615234
3120.612305	17134.990234
3119.769531	17014.177734
3118.927734	16866.167969
3118.084961	17111.576172
3117.242188	17102.767578
3116.398438	16951.787109
3115.555664	17191.011719
3114.712891	17082.402344
3113.869141	17058.484375
3113.025391	17061.779297
3112.181641	17077.164063
3111.337891	17261.777344
3110.494141	17029.357422
3109.650391	17105.160156
3108.805664	17011.787109
3107.961914	17289.910156
3107.117188	17099.908203
3106.272461	16949.216797
3105.427734	17221.177734
3104.583008	16850.189453
3103.737305	17028.533203
3102.892578	17022.769531
3102.046875	17086.392578
3101.202148	16959.974609
3100.356445	17313.091797
3099.510742	17141.449219
3098.665039	16990.962891
3097.818359	17123.865234
3096.972656	17181.378906
3096.125977	17205.728516
3095.280273	17169.814453
3094.433594	17049.566406
3093.586914	17028.746094
3092.740234	17227.757813
3091.892578	17188.851563
3091.045898	17189.089844
3090.198242	16942.519531
3089.351563	17156.462891
3088.503906	17259.007813
3087.656250	17241.181641
3086.808594	17169.218750
3085.960938	17259.681641
3085.112305	17238.857422
3084.264648	17169.933594
3083.416016	17131.093750
3082.567383	16978.056641
3081.718750	17347.939453
3080.870117	17363.169922
3080.021484	17117.041016
3079.172852	17036.189453
3078.323242	17093.501953
3077.473633	17234.871094
3076.625000	17403.210938
3075.775391	17343.373047
3074.925781	17385.593750
3074.075195	17298.771484
3073.225586	17184.974609
3072.375977	17161.205078
3071.525391	17050.466797
3070.674805	17476.533203
3069.824219	17323.802734
3068.973633	17371.968750
3068.123047	17207.314453
3067.272461	17129.619141
3066.420898	17084.908203
3065.570313	17336.796875
3064.718750	17313.033203
3063.867188	17205.419922
3063.015625	17256.544922
3062.164063	17319.625000
3061.311523	17412.621094
3060.459961	17287.101563
3059.607422	17038.933594
3058.755859	17380.259766
3057.903320	17494.123047
3057.050781	17072.562500
3056.197266	17267.181641
3055.344727	17404.927734
3054.492188	17432.015625
3053.638672	17450.125000
3052.785156	17297.880859
3051.932617	17372.781250
3051.079102	17453.630859
3050.224609	17492.634766
3049.371094	17241.921875
3048.517578	17409.351563
3047.663086	17379.669922
3046.808594	17690.312500
3045.955078	17797.892578
3045.100586	17529.423828
3044.245117	17544.498047
3043.390625	17437.251953
3042.536133	17171.953125
3041.680664	17163.216797
3040.825195	17354.267578
3039.970703	17428.982422
3039.115234	17560.308594
3038.258789	17223.671875
3037.403320	17322.208984
3036.547852	17605.437500
3035.691406	17548.976563
3034.835938	17141.072266
3033.979492	17468.863281
3033.123047	17591.099609
3032.266602	17635.892578
3031.409180	17329.439453
3030.552734	17448.660156
3029.695313	17544.039063
3028.838867	17600.708984
3027.981445	17627.615234
3027.124023	17446.320313
3026.266602	17711.134766
3025.409180	17669.625000
3024.550781	17613.263672
3023.693359	17803.615234
3022.834961	17497.625000
3021.976563	17655.248047
3021.118164	17489.005859
3020.259766	17664.400391
3019.401367	17569.484375
3018.541992	17661.667969
3017.683594	17629.128906
3016.824219	17445.210938
3015.964844	17653.115234
3015.106445	17688.843750
3014.246094	17677.085938
3013.386719	17763.226563
3012.527344	17733.666016
3011.666992	17885.009766
3010.807617	17816.890625
3009.947266	17855.517578
3009.086914	17701.466797
3008.226563	18063.132813
3007.366211	17989.101563
3006.504883	18187.656250
3005.644531	18323.941406
3004.783203	18448.335938
3003.921875	18072.244141
3003.060547	18711.804688
3002.199219	18874.558594
3001.337891	19052.056641
3000.476563	19469.199219
2999.614258	20217.595703
2998.751953	20519.041016
2997.890625	21956.205078
2997.028320	22857.619141
2996.166016	24249.587891
2995.302734	25407.548828
2994.440430	26299.099609
2993.577148	26179.587891
2992.714844	26033.521484
2991.851563	24543.193359
2990.988281	23653.017578
2990.125000	22520.935547
2989.261719	21291.767578
2988.397461	20966.494141
2987.534180	20292.972656
2986.669922	20038.804688
2985.805664	19581.085938
2984.941406	19672.345703
2984.077148	19303.341797
2983.212891	19403.464844
2982.348633	19432.773438
2981.483398	19754.001953
2980.619141	19777.345703
2979.753906	20166.214844
2978.888672	20681.695313
2978.023438	21043.769531
2977.158203	21181.796875
2976.291992	22197.671875
2975.426758	22624.125000
2974.560547	22623.414063
2973.694336	23338.220703
2972.828125	23896.763672
2971.961914	24360.929688
2971.095703	25051.562500
2970.229492	25583.070313
2969.362305	26799.923828
2968.495117	27539.835938
2967.628906	27420.679688
2966.761719	27307.443359
2965.894531	26859.056641
2965.026367	25634.716797
2964.159180	24660.609375
2963.291016	23857.269531
2962.423828	23077.693359
2961.555664	22471.703125
2960.687500	22271.267578
2959.819336	21618.611328
2958.951172	21289.173828
2958.082031	21470.699219
2957.213867	21461.359375
2956.344727	21589.966797
2955.475586	21636.365234
2954.606445	21891.066406
2953.737305	22368.638672
2952.868164	22714.064453
2951.999023	23241.203125
2951.128906	23269.701172
2950.258789	23180.921875
2949.388672	23347.185547
2948.519531	22812.947266
2947.648438	22311.113281
2946.778320	21783.072266
2945.908203	21477.832031
2945.037109	21067.250000
2944.166992	20882.285156
2943.295898	20755.937500
2942.424805	20644.267578
2941.553711	20801.914063
2940.681641	20701.978516
2939.810547	20531.849609
2938.938477	20584.115234
2938.067383	21016.625000
2937.195313	21150.683594
2936.323242	21255.457031
2935.451172	21684.720703
2934.578125	22388.625000
2933.706055	22595.441406
2932.833008	23404.169922
2931.960938	24259.382813
2931.087891	25146.455078
2930.214844	26223.091797
2929.341797	26896.373047
2928.467773	27332.925781
2927.594727	27325.585938
2926.720703	27440.845703
2925.847656	27051.171875
2924.973633	26944.669922
2924.099609	27039.507813
2923.225586	26883.451172
2922.350586	26698.277344
2921.476563	26559.820313
2920.601563	26864.582031
2919.727539	26895.218750
2918.852539	27004.542969
2917.977539	26991.433594
2917.102539	27144.412109
2916.226563	27614.884766
2915.351563	27424.000000
2914.475586	27384.619141
2913.599609	27429.691406
2912.724609	27393.230469
2911.848633	27548.900391
2910.971680	27713.251953
2910.095703	27409.042969
2909.219727	27864.312500
2908.342773	27440.904297
2907.465820	26904.199219
2906.588867	26649.751953
2905.711914	26005.765625
2904.834961	25548.044922
2903.958008	25139.882813
2903.080078	24752.197266
2902.203125	24053.722656
2901.325195	23648.904297
2900.447266	23293.597656
2899.569336	22685.730469
2898.691406	22269.710938
2897.812500	21906.089844
2896.934570	21824.166016
2896.055664	21301.097656
2895.176758	21196.082031
2894.297852	20998.251953
2893.418945	20452.359375
2892.540039	20486.759766
2891.661133	20602.349609
2890.781250	20715.001953
2889.901367	19949.169922
2889.022461	20090.876953
2888.142578	19965.900391
2887.261719	20049.603516
2886.381836	19843.548828
2885.501953	20008.353516
2884.621094	19926.916016
2883.741211	19544.330078
2882.860352	19859.664063
2881.979492	19786.972656
2881.098633	19879.287109
2880.216797	19531.683594
2879.335938	19502.482422
2878.454102	19623.728516
2877.573242	19721.794922
2876.691406	19753.308594
2875.809570	19562.152344
2874.927734	19391.298828
2874.044922	19275.421875
2873.163086	19445.718750
2872.280273	19020.660156
2871.398438	19115.818359
2870.515625	19222.501953
2869.632813	19288.712891
2868.749023	19106.539063
2867.866211	19250.707031
2866.983398	18941.570313
2866.099609	18753.767578
2865.215820	18638.175781
2864.332031	18987.201172
2863.448242	18822.560547
2862.564453	18712.781250
2861.680664	18828.005859
2860.795898	18755.748047
2859.912109	18608.548828
2859.027344	18614.185547
2858.142578	18766.818359
2857.257813	18812.771484
2856.373047	18573.451172
2855.487305	18789.394531
2854.602539	18737.386719
2853.716797	18875.472656
2852.831055	18642.054688
2851.945313	18630.398438
2851.059570	18304.980469
2850.173828	18520.753906
2849.287109	18779.623047
2848.401367	18739.179688
2847.514648	18603.814453
2846.627930	18641.070313
2845.741211	18724.326172
2844.854492	18692.541016
2843.967773	18896.505859
2843.081055	18735.353516
2842.193359	18238.001953
2841.305664	18571.246094
2840.417969	18752.111328
2839.530273	18680.132813
2838.642578	18513.400391
2837.754883	18834.894531
2836.866211	18636.605469
2835.978516	18484.312500
2835.089844	18441.134766
2834.201172	18900.179688
2833.312500	18925.810547
2832.423828	18443.652344
2831.535156	18693.080078
2830.645508	18581.074219
2829.755859	18669.822266
2828.867188	18552.119141
2827.977539	18852.962891
2827.087891	18892.900391
2826.197266	18984.404297
2825.307617	18866.724609
2824.416992	18726.166016
2823.527344	18757.501953
2822.636719	18972.105469
2821.746094	18997.666016
2820.855469	18685.406250
2819.964844	19074.517578
2819.073242	18871.097656
2818.182617	18682.050781
2817.291016	18907.898438
2816.399414	19096.486328
2815.507813	18770.212891
2814.616211	18621.333984
2813.724609	18495.376953
2812.832031	18480.947266
2811.940430	18958.121094
2811.047852	18920.757813
2810.155273	18709.115234
2809.262695	18700.369141
2808.370117	18677.345703
2807.476563	18865.660156
2806.583984	18802.640625
2805.690430	18528.376953
2804.796875	18842.218750
2803.903320	18725.005859
2803.009766	18753.359375
2802.116211	18639.050781
2801.222656	18969.785156
2800.328125	18758.503906
2799.434570	18638.546875
2798.540039	18415.982422
2797.645508	19111.431641
2796.750977	18840.406250
2795.855469	18606.517578
2794.960938	18851.396484
2794.065430	18711.593750
2793.170898	18608.865234
2792.275391	18984.630859
2791.379883	18605.681641
2790.484375	18710.853516
2789.587891	18687.894531
2788.692383	18832.863281
2787.795898	18605.003906
2786.900391	18525.166016
2786.003906	18462.423828
2785.107422	18547.603516
2784.209961	18837.511719
2783.313477	18740.626953
2782.416992	18606.814453
2781.519531	18413.353516
2780.622070	18791.195313
2779.724609	18665.962891
2778.827148	18853.287109
2777.929688	18790.578125
2777.032227	18526.238281
2776.133789	18616.945313
2775.235352	18801.314453
2774.336914	18801.105469
2773.438477	18815.085938
2772.540039	18661.628906
2771.641602	18346.492188
2770.743164	18618.697266
2769.843750	18984.417969
2768.944336	18723.263672
2768.044922	19020.794922
2767.145508	18657.654297
2766.246094	18972.107422
2765.346680	18631.765625
2764.446289	18940.451172
2763.546875	18801.382813
2762.646484	18962.634766
2761.746094	19072.853516
2760.845703	19200.025391
2759.945313	19049.677734
2759.043945	19066.404297
2758.143555	18941.601563
2757.242188	18947.019531
2756.340820	18904.332031
2755.439453	18655.132813
2754.538086	18756.767578
2753.636719	18909.275391
2752.735352	18728.060547
2751.833008	18529.941406
2750.930664	19052.722656
2750.028320	18518.277344
2749.125977	18763.951172
2748.223633	18769.382813
2747.321289	18596.839844
2746.417969	18480.841797
2745.515625	18782.841797
2744.612305	19048.037109
2743.708984	18824.740234
2742.805664	18912.013672
2741.902344	18584.388672
2740.998047	18809.935547
2740.094727	18600.927734
2739.190430	18476.613281
2738.286133	18369.259766
2737.381836	18620.074219
2736.477539	18636.789063
2735.573242	18785.992188
2734.667969	18123.398438
2733.763672	18410.722656
2732.858398	18497.900391
2731.953125	18683.650391
2731.047852	18674.984375
2730.142578	18711.380859
2729.237305	18471.816406
2728.331055	18716.570313
2727.425781	18823.314453
2726.519531	18552.884766
2725.613281	18563.943359
2724.707031	18718.490234
2723.800781	18535.414063
2722.893555	18883.984375
2721.987305	18535.021484
2721.080078	18529.201172
2720.172852	18495.269531
2719.265625	18823.941406
2718.358398	18559.523438
2717.451172	18772.871094
2716.542969	18300.648438
2715.635742	18744.304688
2714.727539	18673.857422
2713.819336	18611.857422
2712.911133	18732.369141
2712.002930	18501.949219
2711.094727	18599.986328
2710.185547	18448.236328
2709.276367	18549.054688
2708.368164	18708.751953
2707.458984	18840.347656
2706.549805	18525.998047
2705.639648	18685.619141
2704.730469	18962.937500
2703.820313	18814.097656
2702.911133	18771.806641
2702.000977	18810.791016
2701.090820	18824.546875
2700.180664	18801.880859
2699.269531	18737.208984
2698.359375	18552.146484
2697.448242	18641.529297
2696.537109	18907.244141
2695.625977	18470.335938
2694.714844	18800.357422
2693.803711	18607.037109
2692.892578	18841.810547
2691.980469	18746.443359
2691.069336	18625.937500
2690.157227	19005.996094
2689.245117	18726.126953
2688.333008	18792.968750
2687.419922	18840.222656
2686.507813	18739.357422
2685.594727	18711.167969
2684.682617	19118.773438
2683.769531	18998.359375
2682.856445	18590.345703
2681.943359	18813.490234
2681.029297	18598.265625
2680.116211	18865.994141
2679.202148	18835.019531
2678.288086	18778.943359
2677.374023	19029.771484
2676.459961	18521.792969
2675.545898	18725.167969
2674.630859	18858.763672
2673.716797	19048.074219
2672.801758	18994.802734
2671.886719	18740.871094
2670.971680	18813.068359
2670.056641	18737.568359
2669.141602	18804.167969
2668.225586	18567.142578
2667.310547	18945.656250
2666.394531	18992.697266
2665.478516	18744.619141
2664.562500	18911.369141
2663.646484	18874.898438
2662.729492	18894.091797
2661.813477	18935.535156
2660.896484	19043.726563
2659.979492	18815.347656
2659.062500	18873.466797
2658.145508	18795.330078
2657.228516	18675.517578
2656.310547	18983.783203
2655.393555	19169.669922
2654.475586	19077.638672
2653.557617	18966.191406
2652.639648	18910.332031
2651.721680	18993.351563
2650.802734	18845.873047
2649.884766	19109.333984
2648.965820	19089.572266
2648.046875	18953.248047
2647.127930	18933.517578
2646.208984	18741.773438
2645.290039	18858.009766
2644.370117	19074.058594
2643.451172	18799.187500
2642.531250	18998.539063
2641.611328	18837.429688
2640.691406	19191.929688
2639.771484	18992.042969
2638.850586	19005.580078
2637.930664	18844.574219
2637.009766	19018.789063
2636.088867	19101.550781
2635.167969	19137.212891
2634.247070	19070.421875
2633.326172	19202.960938
2632.405273	19180.462891
2631.483398	18942.125000
2630.561523	19107.820313
2629.639648	19137.910156
2628.717773	19118.201172
2627.795898	19095.732422
2626.874023	19247.468750
2625.951172	18931.939453
2625.029297	19404.292969
2624.106445	18950.654297
2623.183594	18989.019531
2622.260742	19179.326172
2621.336914	19300.511719
2620.414063	18860.992188
2619.490234	19100.929688
2618.567383	19326.986328
2617.643555	19301.755859
2616.719727	19044.687500
2615.794922	19011.232422
2614.871094	19126.785156
2613.947266	19165.054688
2613.022461	19167.453125
2612.097656	19070.566406
2611.172852	19097.794922
2610.248047	19061.603516
2609.323242	19331.396484
2608.397461	18972.718750
2607.472656	19112.921875
2606.546875	19275.121094
2605.621094	19059.871094
2604.695313	19076.050781
2603.769531	19031.638672
2602.842773	19174.468750
2601.916992	19311.748047
2600.990234	19093.912109
2600.063477	19126.580078
2599.136719	19156.486328
2598.209961	18960.789063
2597.283203	19213.515625
2596.355469	18918.863281
2595.428711	19141.265625
2594.500977	19226.128906
2593.573242	19195.509766
2592.645508	19393.021484
2591.717773	19211.244141
2590.790039	18963.585938
2589.861328	19218.726563
2588.932617	19245.810547
2588.004883	19171.275391
2587.076172	19365.849609
2586.146484	19409.365234
2585.217773	19318.371094
2584.289063	18972.171875
2583.359375	19169.392578
2582.429688	19278.755859
2581.500000	19519.751953
2580.570313	19349.271484
2579.640625	19176.105469
2578.710938	19310.070313
2577.780273	19279.511719
2576.849609	19057.105469
2575.919922	19423.955078
2574.989258	19144.056641
2574.057617	19217.644531
2573.126953	19170.689453
2572.196289	19236.033203
2571.264648	19380.761719
2570.333008	19448.785156
2569.401367	19284.119141
2568.469727	19037.398438
2567.538086	19113.654297
2566.605469	19140.634766
2565.673828	19216.847656
2564.741211	19178.160156
2563.808594	19505.923828
2562.875977	19322.291016
2561.943359	19223.464844
2561.010742	19029.003906
2560.077148	19189.873047
2559.144531	19096.578125
2558.210938	19210.939453
2557.277344	19139.521484
2556.343750	19120.017578
2555.409180	19201.550781
2554.475586	19214.802734
2553.541016	19069.728516
2552.607422	19304.066406
2551.672852	19290.005859
2550.738281	19297.775391
2549.802734	19076.396484
2548.868164	19136.019531
2547.933594	19381.062500
2546.998047	19217.035156
2546.062500	19113.035156
2545.126953	19437.003906
2544.191406	19341.177734
2543.255859	19321.677734
2542.319336	19288.560547
2541.383789	19026.642578
2540.447266	19396.658203
2539.510742	19347.205078
2538.574219	19308.658203
2537.637695	19321.843750
2536.700195	19318.693359
2535.763672	19277.447266
2534.826172	19160.029297
2533.888672	19175.949219
2532.951172	19178.263672
2532.013672	19395.416016
2531.075195	19196.482422
2530.137695	19234.130859
2529.199219	19320.695313
2528.261719	19276.779297
2527.323242	19466.562500
2526.383789	19409.052734
2525.445313	19226.605469
2524.506836	19579.259766
2523.567383	19494.601563
2522.627930	19439.835938
2521.689453	19436.666016
2520.749023	19677.773438
2519.809570	19381.480469
2518.870117	19332.195313
2517.929688	19399.576172
2516.990234	19396.412109
2516.049805	19509.863281
2515.109375	19354.835938
2514.168945	19565.855469
2513.227539	19516.582031
2512.287109	19461.906250
2511.345703	19458.730469
2510.404297	19460.976563
2509.462891	19184.205078
2508.521484	19522.337891
2507.580078	19305.222656
2506.638672	19386.007813
2505.696289	19258.318359
2504.753906	19433.816406
2503.812500	19438.763672
2502.869141	19332.773438
2501.926758	19356.673828
2500.984375	19388.677734
2500.041016	19217.839844
2499.098633	19274.191406
2498.155273	19544.107422
2497.211914	19292.230469
2496.268555	19299.894531
2495.324219	19294.042969
2494.380859	18961.273438
2493.436523	19312.058594
2492.493164	19503.373047
2491.548828	19335.460938
2490.604492	19467.308594
2489.659180	19491.126953
2488.714844	19539.230469
2487.769531	19374.119141
2486.825195	19562.535156
2485.879883	19562.039063
2484.934570	19275.619141
2483.988281	19620.380859
2483.042969	19374.492188
2482.097656	19142.162109
2481.151367	19209.125000
2480.205078	19712.687500
2479.258789	19434.603516
2478.312500	19350.601563
2477.366211	19614.136719
2476.418945	19392.765625
2475.472656	19586.189453
2474.525391	19206.033203
2473.578125	19897.464844
2472.630859	19237.445313
2471.682617	19414.619141
2470.735352	19559.443359
2469.787109	19653.101563
2468.839844	19641.824219
2467.891602	19560.621094
2466.943359	19215.917969
2465.995117	19777.388672
2465.045898	19666.632813
2464.097656	19300.576172
2463.148438	19343.109375
2462.199219	19452.798828
2461.250000	19301.869141
2460.300781	19516.279297
2459.351563	19636.626953
2458.401367	19434.722656
2457.452148	19657.060547
2456.501953	19747.796875
2455.551758	19629.169922
2454.601563	19379.095703
2453.650391	19628.123047
2452.700195	19394.224609
2451.749023	19731.673828
2450.798828	19591.689453
2449.847656	19561.677734
2448.896484	19470.019531
2447.944336	19670.539063
2446.993164	19712.882813
2446.041016	19548.898438
2445.089844	19393.003906
2444.137695	19496.976563
2443.185547	19378.632813
2442.233398	19434.375000
2441.280273	19618.603516
2440.328125	19727.824219
2439.375000	19513.169922
2438.421875	19413.648438
2437.468750	19496.089844
2436.515625	19629.332031
2435.562500	19505.767578
2434.608398	19478.511719
2433.655273	19558.212891
2432.701172	19664.621094
2431.747070	19640.025391
2430.792969	19765.089844
2429.838867	19764.533203
2428.883789	19427.361328
2427.929688	19544.384766
2426.974609	19396.974609
2426.019531	19716.900391
2425.064453	19409.322266
2424.109375	19790.535156
2423.153320	19541.759766
2422.198242	19642.636719
2421.242188	19735.474609
2420.286133	19788.267578
2419.330078	19782.365234
2418.374023	19667.128906
2417.417969	19530.599609
2416.460938	19764.667969
2415.504883	19700.130859
2414.547852	19771.529297
2413.590820	19613.751953
2412.633789	19994.177734
2411.675781	19476.818359
2410.718750	19689.357422
2409.760742	19789.986328
2408.803711	19746.814453
2407.845703	19629.123047
2406.887695	19663.173828
2405.929688	19433.767578
2404.970703	19654.082031
2404.011719	19669.488281
2403.052734	19599.777344
2402.093750	19737.515625
2401.134766	19558.800781
2400.175781	19720.425781
2399.216797	19693.279297
2398.257813	19384.435547
2397.296875	19827.666016
2396.337891	19412.630859
2395.376953	19847.742188
2394.417969	19892.300781
2393.457031	19628.814453
2392.496094	19644.189453
2391.537109	19351.630859
2390.576172	19404.199219
2389.615234	19732.734375
2388.654297	19472.142578
2387.691406	19646.693359
2386.730469	19712.441406
2385.769531	19619.050781
2384.806641	19629.097656
2383.845703	19543.701172
2382.882813	19678.337891
2381.921875	19807.626953
2380.958984	19497.011719
2379.996094	19777.300781
2379.033203	19895.914063
2378.070313	19675.482422
2377.107422	19614.005859
2376.144531	19833.195313
2375.181641	19541.406250
2374.218750	19723.480469
2373.253906	19971.650391
2372.291016	19635.001953
2371.326172	19525.970703
2370.363281	19776.695313
2369.398438	19617.427734
2368.433594	19794.017578
2367.468750	19584.568359
2366.505859	19676.519531
2365.541016	19845.082031
2364.574219	19704.429688
2363.609375	19865.005859
2362.644531	19705.902344
2361.679688	19515.156250
2360.712891	19583.259766
2359.748047	19978.730469
2358.781250	19785.392578
2357.816406	19676.578125
2356.849609	19599.464844
2355.882813	20002.585938
2354.916016	19732.865234
2353.949219	19769.197266
2352.982422	19605.089844
2352.015625	19557.054688
2351.048828	19501.123047
2350.080078	19735.164063
2349.113281	19924.322266
2348.144531	19557.419922
2347.177734	19844.025391
2346.208984	19759.115234
2345.242188	19871.763672
2344.273438	19947.509766
2343.304688	19767.837891
2342.335938	20012.050781
2341.367188	19674.503906
2340.398438	19779.177734
2339.429688	19439.146484
2338.458984	19880.556641
2337.490234	19724.742188
2336.519531	19918.751953
2335.550781	19736.685547
2334.580078	19717.677734
2333.611328	19454.216797
2332.640625	19955.634766
2331.669922	19973.386719
2330.699219	19980.623047
2329.728516	20040.394531
2328.757813	19648.396484
2327.787109	20002.314453
2326.814453	19707.597656
2325.843750	19746.369141
2324.873047	19840.248047
2323.900391	19655.919922
2322.929688	19967.562500
2321.957031	19875.093750
2320.984375	19772.162109
2320.011719	19771.542969
2319.039063	19954.474609
2318.066406	19906.634766
2317.093750	19955.796875
2316.121094	19858.173828
2315.148438	20035.728516
2314.175781	20011.484375
2313.201172	19743.626953
2312.228516	19782.296875
2311.253906	20035.685547
2310.281250	19739.154297
2309.306641	20071.001953
2308.332031	19622.751953
2307.357422	19821.041016
2306.382813	19990.484375
2305.408203	19699.431641
2304.433594	19853.144531
2303.458984	19828.966797
2302.482422	19880.626953
2301.507813	19853.835938
2300.533203	19837.509766
2299.556641	19842.097656
2298.580078	19893.718750
2297.605469	19707.568359
2296.628906	20093.562500
2295.652344	19769.011719
2294.675781	19810.162109
2293.699219	20039.291016
2292.722656	19834.990234
2291.746094	19993.564453
2290.767578	19825.875000
2289.791016	20080.939453
2288.814453	19975.900391
2287.835938	19863.070313
2286.857422	19799.828125
2285.880859	19966.070313
2284.902344	20090.544922
2283.923828	20042.933594
2282.945313	19896.300781
2281.966797	19538.640625
2280.988281	20082.572266
2280.009766	19977.683594
2279.029297	19953.568359
2278.050781	19603.943359
2277.072266	19915.775391
2276.091797	20047.878906
2275.113281	20062.808594
2274.132813	19895.562500
2273.152344	20084.845703
2272.171875	19928.056641
2271.191406	20151.085938
2270.210938	19827.888672
2269.230469	20004.054688
2268.250000	19662.789063
2267.269531	19984.492188
2266.287109	19916.236328
2265.306641	20050.691406
2264.326172	20024.015625
2263.343750	19828.496094
2262.361328	20004.455078
2261.378906	19988.187500
2260.398438	20122.517578
2259.416016	19976.433594
2258.433594	19861.542969
2257.451172	19889.423828
2256.466797	19805.720703
2255.484375	19934.779297
2254.501953	19926.318359
2253.517578	19772.625000
2252.535156	20106.472656
2251.550781	19978.724609
2250.568359	20397.972656
2249.583984	19904.777344
2248.599609	19821.177734
2247.615234	20131.423828
2246.630859	19788.761719
2245.646484	19935.736328
2244.662109	20090.429688
2243.677734	20294.267578
2242.691406	20034.644531
2241.707031	19772.515625
2240.720703	19914.193359
2239.736328	20278.349609
2238.750000	19879.193359
2237.765625	19943.179688
2236.779297	19872.662109
2235.792969	20006.445313
2234.806641	19796.328125
2233.820313	20142.044922
2232.833984	20105.136719
2231.845703	19802.076172
2230.859375	19964.177734
2229.873047	20185.642578
2228.884766	19787.150391
2227.898438	19923.349609
2226.910156	19932.986328
2225.921875	19875.498047
2224.933594	19882.554688
2223.945313	19814.769531
2222.957031	20002.455078
2221.968750	19880.494141
2220.980469	19993.300781
2219.992188	19902.328125
2219.003906	20102.767578
2218.013672	19854.535156
2217.025391	19902.828125
2216.035156	20033.576172
2215.046875	19806.093750
2214.056641	20323.287109
2213.066406	19933.537109
2212.076172	20097.675781
2211.085938	20390.521484
2210.095703	19908.257813
2209.105469	19881.816406
2208.115234	19796.181641
2207.123047	19805.792969
2206.132813	20049.554688
2205.140625	19925.341797
2204.150391	20207.585938
2203.158203	19957.367188
2202.166016	19902.658203
2201.175781	20213.044922
2200.183594	20191.726563
2199.191406	19985.365234
2198.199219	20151.679688
2197.205078	20102.117188
2196.212891	20263.218750
2195.220703	20005.609375
2194.228516	20182.082031
2193.234375	19901.460938
2192.240234	19954.666016
2191.248047	20015.552734
2190.253906	20304.820313
2189.259766	19993.572266
2188.265625	20157.039063
2187.271484	19974.167969
2186.277344	19968.318359
2185.283203	20277.867188
2184.289063	20036.097656
2183.294922	19991.787109
2182.298828	20083.328125
2181.304688	20069.773438
2180.308594	20148.458984
2179.312500	19960.701172
2178.318359	20054.746094
2177.322266	19941.328125
2176.326172	20043.025391
2175.330078	20055.085938
2174.333984	20279.587891
2173.337891	20066.400391
2172.339844	19753.490234
2171.343750	20348.884766
2170.347656	20235.546875
2169.349609	20137.589844
2168.353516	20203.314453
2167.355469	19998.015625
2166.357422	20132.759766
2165.359375	19832.972656
2164.361328	20126.130859
2163.363281	20099.824219
2162.365234	19920.251953
2161.367188	20249.007813
2160.369141	20207.367188
2159.369141	20048.291016
2158.371094	19999.039063
2157.373047	20051.900391
2156.373047	20033.287109
2155.373047	20389.761719
2154.373047	20026.689453
2153.375000	20066.753906
2152.375000	20048.148438
2151.375000	20225.890625
2150.375000	20222.558594
2149.373047	20084.128906
2148.373047	20322.941406
2147.373047	20227.859375
2146.371094	20379.943359
2145.371094	19991.931641
2144.369141	19991.185547
2143.367188	20059.195313
2142.367188	19956.591797
2141.365234	20457.355469
2140.363281	20240.181641
2139.361328	20170.679688
2138.359375	20091.023438
2137.357422	20095.345703
2136.353516	20206.498047
2135.351563	20101.441406
2134.347656	20339.693359
2133.345703	20104.988281
2132.341797	20256.732422
2131.339844	20103.445313
2130.335938	20201.777344
2129.332031	20241.640625
2128.328125	20141.773438
2127.324219	20524.511719
2126.320313	20180.845703
2125.316406	20327.322266
2124.310547	20379.820313
2123.306641	20274.935547
2122.300781	20172.621094
2121.296875	20225.117188
2120.291016	20176.119141
2119.285156	20279.326172
2118.281250	20248.087891
2117.275391	20229.535156
2116.269531	20479.724609
2115.263672	20233.005859
2114.257813	20412.148438
2113.250000	20031.216797
2112.244141	20286.339844
2111.238281	20404.587891
2110.230469	20115.023438
2109.224609	20291.501953
2108.216797	20027.369141
2107.208984	20327.845703
2106.201172	20501.667969
2105.193359	20384.408203
2104.185547	20297.548828
2103.177734	20488.998047
2102.169922	20194.738281
2101.162109	20558.111328
2100.154297	20268.992188
2099.144531	20470.429688
2098.136719	20575.746094
2097.126953	20294.347656
2096.117188	20301.107422
2095.109375	20325.550781
2094.099609	20150.425781
2093.089844	20217.820313
2092.080078	20315.494141
2091.070313	20415.660156
2090.058594	20341.609375
2089.048828	20237.292969
2088.039063	20294.519531
2087.027344	20210.431641
2086.017578	20302.960938
2085.005859	20314.744141
2083.996094	20482.880859
2082.984375	20282.826172
2081.972656	20360.154297
2080.960938	20538.281250
2079.949219	20408.878906
2078.937500	20453.388672
2077.925781	20444.974609
2076.912109	20323.207031
2075.900391	20481.042969
2074.886719	20439.890625
2073.875000	20222.507813
2072.861328	20382.796875
2071.847656	20251.070313
2070.835938	20501.892578
2069.822266	20123.613281
2068.808594	20278.777344
2067.794922	20476.650391
2066.779297	20433.033203
2065.765625	20168.160156
2064.751953	20594.724609
2063.736328	20432.968750
2062.722656	20394.410156
2061.707031	20328.224609
2060.693359	20141.466797
2059.677734	20442.083984
2058.662109	20114.724609
2057.646484	20427.800781
2056.630859	20554.982422
2055.615234	20539.037109
2054.599609	20497.998047
2053.583984	20416.820313
2052.566406	20358.250000
2051.550781	20420.111328
2050.533203	20158.394531
2049.517578	20448.474609
2048.500000	20272.089844
2047.482422	20218.601563
2046.464844	20653.906250
2045.447266	20362.291016
2044.429688	20283.755859
2043.412109	20666.220703
2042.394531	20492.474609
2041.376953	20371.378906
2040.357422	20292.890625
2039.339844	20534.896484
2038.320313	20338.753906
2037.300781	20342.902344
2036.283203	20389.589844
2035.263672	20213.582031
2034.244141	20325.314453
2033.224609	20144.373047
2032.205078	20606.183594
2031.185547	20347.744141
2030.166016	20434.378906
2029.144531	20570.974609
2028.125000	20505.097656
2027.103516	20361.781250
2026.083984	19951.199219
2025.062500	20317.583984
2024.041016	20281.757813
2023.019531	20151.056641
2021.998047	20442.328125
2020.976563	20291.671875
2019.955078	20255.873047
2018.933594	20247.533203
2017.912109	20204.265625
2016.888672	20235.849609
2015.867188	19935.701172
2014.843750	20426.164063
2013.822266	20143.535156
2012.798828	20269.835938
2011.775391	20136.873047
2010.751953	20382.751953
2009.728516	20182.539063
2008.705078	20266.396484
2007.681641	20312.861328
2006.658203	20279.617188
2005.632813	20047.181641
2004.609375	20347.597656
2003.585938	19926.046875
2002.560547	20328.423828
2001.535156	20160.828125
2000.509766	20107.734375
1999.486328	20256.150391
1998.460938	20282.644531
1997.435547	20309.130859
1996.410156	20221.236328
1995.382813	20372.015625
1994.357422	20413.384766
1993.332031	20166.468750
1992.304688	20319.667969
1991.279297	19886.527344
1990.251953	20089.396484
1989.224609	20170.509766
1988.197266	20256.562500
1987.171875	20305.345703
1986.144531	20428.578125
1985.117188	20291.179688
1984.087891	19930.501953
1983.060547	19971.861328
1982.033203	20196.767578
1981.003906	20486.083984
1979.976563	20366.144531
1978.947266	20045.419922
1977.919922	20423.855469
1976.890625	19981.777344
1975.861328	19985.904297
1974.832031	20044.539063
1973.802734	19815.787109
1972.773438	20362.373047
1971.744141	20450.630859
1970.712891	20273.921875
1969.683594	20042.806641
1968.654297	20195.427734
1967.623047	20060.917969
1966.591797	20312.460938
1965.562500	20093.859375
1964.531250	20412.099609
1963.500000	20235.595703
1962.468750	20432.539063
1961.437500	20117.638672
1960.406250	20438.132813
1959.373047	20212.308594
1958.341797	20137.298828
1957.310547	19916.539063
1956.277344	20187.445313
1955.246094	20075.425781
1954.212891	20079.509766
1953.179688	20293.462891
1952.146484	20398.722656
1951.113281	20052.253906
1950.080078	20231.554688
1949.046875	20109.765625
1948.013672	19948.542969
1946.980469	19984.703125
1945.945313	20065.244141
1944.912109	20192.607422
1943.876953	19890.947266
1942.841797	20457.068359
1941.808594	20330.447266
1940.773438	20240.832031
1939.738281	20015.738281
1938.703125	20239.050781
1937.667969	20361.308594
1936.632813	20099.365234
1935.595703	20209.292969
1934.560547	20191.173828
1933.525391	20143.523438
1932.488281	20132.800781
1931.453125	20097.478516
1930.416016	20155.648438
1929.378906	20105.574219
1928.341797	20399.814453
1927.304688	20187.427734
1926.267578	19842.353516
1925.230469	20023.417969
1924.193359	20054.505859
1923.154297	20154.386719
1922.117188	20035.572266
1921.078125	20363.869141
1920.041016	20068.224609
1919.001953	20126.289063
1917.962891	20032.107422
1916.925781	20215.351563
1915.886719	19902.744141
1914.847656	20061.408203
1913.806641	19888.783203
1912.767578	20049.847656
1911.728516	20127.462891
1910.689453	20087.339844
1909.648438	20147.759766
1908.609375	20232.673828
1907.568359	20270.986328
1906.527344	20088.720703
1905.486328	20104.990234
1904.445313	20189.851563
1903.404297	20154.658203
1902.363281	19955.386719
1901.322266	20218.984375
1900.281250	19970.798828
1899.240234	19908.736328
1898.197266	20054.730469
1897.156250	20063.638672
1896.113281	20016.267578
1895.070313	20184.185547
1894.027344	20256.658203
1892.986328	20091.896484
1891.943359	20355.072266
1890.900391	20024.111328
1889.855469	19947.460938
1888.812500	19824.402344
1887.769531	20102.107422
1886.724609	19949.746094
1885.681641	20022.156250
1884.636719	20133.615234
1883.593750	20074.111328
1882.548828	20063.455078
1881.503906	20223.671875
1880.458984	19763.923828
1879.414063	19904.613281
1878.369141	19906.187500
1877.324219	19910.201172
1876.277344	20006.892578
1875.232422	20196.218750
1874.185547	20246.503906
1873.140625	19731.212891
1872.093750	19859.554688
1871.046875	19912.304688
1870.001953	19852.958984
1868.955078	19976.339844
1867.908203	20046.095703
1866.861328	19979.447266
1865.812500	19924.994141
1864.765625	19997.156250
1863.718750	19867.259766
1862.669922	19705.769531
1861.623047	19756.027344
1860.574219	19908.453125
1859.525391	19958.660156
1858.476563	20052.628906
1857.429688	19840.171875
1856.380859	19788.250000
1855.330078	20028.050781
1854.281250	19429.253906
1853.232422	19936.341797
1852.183594	19830.984375
1851.132813	19499.736328
1850.083984	19695.664063
1849.033203	20146.513672
1847.982422	19883.363281
1846.933594	19625.154297
1845.882813	19502.957031
1844.832031	19931.695313
1843.781250	19896.837891
1842.728516	19580.572266
1841.677734	19793.199219
1840.626953	19772.933594
1839.574219	19808.443359
1838.523438	19657.259766
1837.470703	19535.214844
1836.419922	19893.087891
1835.367188	19795.275391
1834.314453	19748.373047
1833.261719	19786.271484
1832.208984	19816.888672
1831.156250	19966.156250
1830.101563	19570.599609
1829.048828	19649.654297
1827.996094	19772.246094
1826.941406	20115.017578
1825.888672	19722.119141
1824.833984	19803.509766
1823.779297	19577.687500
1822.724609	19622.800781
1821.669922	19692.076172
1820.615234	19809.679688
1819.560547	19944.164063
1818.505859	19653.250000
1817.451172	19799.796875
1816.394531	19731.271484
1815.339844	19438.119141
1814.283203	19671.572266
1813.228516	19709.351563
1812.171875	19773.673828
1811.115234	19705.207031
1810.058594	19680.207031
1809.001953	19918.248047
1807.945313	19509.589844
1806.888672	19663.148438
1805.830078	19679.171875
1804.773438	19750.654297
1803.714844	19525.541016
1802.658203	19751.314453
1801.599609	19822.748047
1800.541016	19682.082031
1799.484375	19681.214844
1798.425781	19856.216797
1797.367188	19922.765625
1796.308594	19632.855469
1795.248047	19547.716797
1794.189453	19549.279297
1793.130859	19753.039063
1792.070313	19756.970703
1791.011719	19667.052734
1789.951172	19938.056641
1788.890625	19698.994141
1787.830078	19546.595703
1786.769531	19632.316406
1785.708984	19756.476563
1784.648438	19505.582031
1783.587891	20002.269531
1782.527344	19470.248047
1781.464844	19909.109375
1780.404297	19504.603516
1779.341797	19520.570313
1778.281250	19949.595703
1777.218750	19434.830078
1776.156250	19611.648438
1775.093750	19673.191406
1774.031250	19849.910156
1772.968750	19599.451172
1771.906250	19639.371094
1770.843750	19604.916016
1769.779297	19702.380859
1768.716797	19663.128906
1767.652344	19866.041016
1766.589844	19575.074219
1765.525391	19626.937500
1764.460938	19664.404297
1763.396484	19502.996094
1762.332031	19607.544922
1761.267578	19359.972656
1760.203125	19543.537109
1759.138672	19683.941406
1758.072266	19414.933594
1757.007813	19536.162109
1755.941406	19434.787109
1754.875000	19594.253906
1753.810547	19476.156250
1752.744141	19415.501953
1751.677734	19469.664063
1750.611328	19559.671875
1749.544922	19762.017578
1748.478516	19519.687500
1747.410156	19786.498047
1746.343750	19584.865234
1745.277344	19545.763672
1744.208984	19564.003906
1743.140625	19594.177734
1742.074219	19287.638672
1741.005859	19580.482422
1739.937500	19646.445313
1738.869141	19258.898438
1737.800781	19730.576172
1736.732422	19586.511719
1735.662109	19394.785156
1734.593750	19715.935547
1733.523438	19569.558594
1732.455078	19349.316406
1731.384766	19658.390625
1730.314453	19593.138672
1729.246094	19423.046875
1728.175781	19608.046875
1727.105469	19685.777344
1726.035156	19465.732422
1724.962891	19569.656250
1723.892578	19642.589844
1722.822266	19210.767578
1721.750000	19467.027344
1720.679688	19182.937500
1719.607422	19393.902344
1718.535156	19621.449219
1717.462891	19420.732422
1716.390625	19436.519531
1715.318359	19411.873047
1714.246094	19739.125000
1713.173828	19445.808594
1712.101563	19242.908203
1711.027344	19698.349609
1709.955078	19531.115234
1708.880859	19508.849609
1707.808594	19512.718750
1706.734375	19345.595703
1705.660156	19342.367188
1704.585938	19358.128906
1703.511719	19551.912109
1702.437500	19358.787109
1701.363281	19403.011719
1700.287109	19340.460938
1699.212891	19313.509766
1698.138672	19338.746094
1697.062500	18956.109375
1695.986328	19564.634766
1694.910156	19573.220703
1693.835938	19313.980469
1692.759766	19398.433594
1691.683594	19326.484375
1690.605469	19166.908203
1689.529297	19369.767578
1688.453125	19295.488281
1687.376953	19247.279297
1686.298828	19071.248047
1685.220703	19558.019531
1684.144531	19550.019531
1683.066406	19447.375000
1681.988281	19418.101563
1680.910156	19194.878906
1679.832031	19215.322266
1678.753906	19257.039063
1677.675781	19242.000000
1676.595703	19134.779297
1675.517578	19185.939453
1674.437500	19194.548828
1673.359375	19326.007813
1672.279297	19147.976563
1671.199219	19213.267578
1670.119141	19221.863281
1669.039063	19379.201172
1667.958984	19290.978516
1666.878906	19205.146484
1665.798828	19109.902344
1664.718750	19227.039063
1663.636719	19249.775391
1662.556641	19043.712891
1661.474609	19016.947266
1660.392578	19211.828125
1659.310547	18994.087891
1658.228516	19278.474609
1657.146484	19308.244141
1656.064453	19116.513672
1654.982422	19016.724609
1653.900391	18975.857422
1652.818359	18979.750000
1651.734375	19009.541016
1650.652344	19112.306641
1649.568359	18970.228516
1648.484375	19381.277344
1647.400391	19105.072266
1646.316406	18845.427734
1645.232422	19119.851563
1644.148438	19015.519531
1643.064453	19000.582031
1641.980469	18966.837891
1640.894531	19022.433594
1639.810547	19073.310547
1638.724609	19121.820313
1637.640625	19137.416016
1636.554688	19211.738281
1635.468750	19142.757813
1634.382813	19019.785156
1633.296875	18711.361328
1632.210938	18940.644531
1631.125000	19045.447266
1630.037109	18734.824219
1628.951172	18811.468750
1627.863281	18918.583984
1626.777344	18826.283203
1625.689453	18879.417969
1624.601563	19122.470703
1623.513672	18851.998047
1622.425781	18977.767578
1621.337891	19040.214844
1620.250000	18903.458984
1619.162109	18815.949219
1618.074219	18775.318359
1616.984375	18898.650391
1615.896484	18808.841797
1614.806641	19065.582031
1613.716797	18739.337891
1612.626953	18907.062500
1611.539063	18679.238281
1610.449219	18910.089844
1609.357422	19232.097656
1608.267578	18742.365234
1607.177734	18755.597656
1606.087891	18838.968750
1604.996094	19039.205078
1603.906250	19134.187500
1602.814453	18661.238281
1601.722656	18915.142578
1600.630859	18774.136719
1599.539063	18992.898438
1598.447266	19027.083984
1597.355469	18846.429688
1596.263672	18773.232422
1595.171875	18592.679688
1594.078125	18969.992188
1592.986328	18920.142578
1591.892578	18909.972656
1590.800781	18633.875000
1589.707031	18931.625000
1588.613281	18947.107422
1587.519531	18818.027344
1586.425781	18793.894531
1585.332031	18958.560547
1584.236328	18661.753906
1583.142578	18765.806641
1582.048828	18634.533203
1580.953125	18610.445313
1579.857422	18658.560547
1578.763672	18920.875000
1577.667969	18738.443359
1576.572266	18609.607422
1575.476563	18585.542969
1574.380859	18775.558594
1573.285156	18870.123047
1572.187500	18632.023438
1571.091797	18821.931641
1569.996094	18556.015625
1568.898438	18873.744141
1567.800781	18573.037109
1566.705078	18872.062500
1565.607422	18557.513672
1564.509766	18540.460938
1563.412109	18576.841797
1562.314453	18513.339844
1561.214844	18584.544922
1560.117188	18572.140625
1559.019531	18497.060547
1557.919922	18361.660156
1556.822266	18509.419922
1555.722656	18404.224609
1554.623047	18628.482422
1553.523438	18328.464844
1552.423828	18626.871094
1551.324219	18428.976563
1550.224609	18708.716797
1549.125000	18383.386719
1548.023438	18674.628906
1546.923828	18511.611328
1545.822266	18290.730469
1544.722656	18639.748047
1543.621094	18615.775391
1542.519531	18239.843750
1541.417969	18322.443359
1540.316406	18249.923828
1539.214844	18239.917969
1538.113281	18567.761719
1537.011719	18534.568359
1535.908203	18230.734375
1534.806641	18278.556641
1533.703125	18247.738281
1532.599609	18566.054688
1531.498047	18472.781250
1530.394531	18552.886719
1529.291016	18357.964844
1528.187500	18361.814453
1527.083984	18356.419922
1525.978516	18568.146484
1524.875000	18327.162109
1523.771484	18633.488281
1522.666016	18325.625000
1521.560547	18479.503906
1520.457031	18227.156250
1519.351563	18526.369141
1518.246094	18230.261719
1517.140625	18132.626953
1516.035156	18254.119141
1514.929688	18211.853516
1513.822266	18109.656250
1512.716797	18168.851563
1511.609375	18218.808594
1510.503906	18390.876953
1509.396484	18235.726563
1508.289063	18253.394531
1507.181641	18330.937500
1506.074219	18205.810547
1504.966797	18258.007813
1503.859375	18183.578125
1502.751953	18185.125000
1501.644531	18331.648438
1500.535156	18342.373047
1499.427734	18369.197266
1498.318359	18267.205078
1497.208984	18015.769531
1496.099609	18136.902344
1494.992188	18115.462891
1493.882813	18353.763672
1492.771484	18233.472656
1491.662109	18195.939453
1490.552734	18004.496094
1489.443359	18077.269531
1488.332031	18205.136719
1487.220703	18323.775391
1486.111328	18267.890625
1485.000000	18363.521484
1483.888672	18975.507813
1482.777344	19105.408203
1481.666016	19508.283203
1480.554688	19757.330078
1479.443359	20031.521484
1478.330078	20544.105469
1477.218750	20719.484375
1476.105469	20931.480469
1474.994141	20790.441406
1473.880859	20846.525391
1472.767578	20222.103516
1471.654297	19998.783203
1470.541016	19583.142578
1469.427734	19250.082031
1468.314453	19235.394531
1467.199219	18971.181641
1466.085938	18537.679688
1464.972656	18465.904297
1463.857422	18467.373047
1462.742188	18443.675781
1461.626953	18616.697266
1460.513672	18451.191406
1459.398438	18370.341797
1458.283203	18344.388672
1457.166016	18185.865234
1456.050781	18324.500000
1454.935547	18332.841797
1453.818359	18364.025391
1452.703125	18326.669922
1451.585938	18047.234375
1450.468750	18229.160156
1449.351563	18306.000000
1448.234375	18569.996094
1447.117188	18311.248047
1446.000000	18406.289063
1444.882813	18432.849609
1443.765625	18466.244141
1442.646484	18536.121094
1441.529297	18457.744141
1440.410156	18406.755859
1439.291016	18394.537109
1438.173828	18405.115234
1437.054688	18308.580078
1435.935547	18291.826172
1434.816406	18400.373047
1433.695313	18638.712891
1432.576172	18426.056641
1431.457031	18288.611328
1430.335938	18076.083984
1429.216797	18389.431641
1428.095703	18013.097656
1426.974609	18096.529297
1425.853516	18129.880859
1424.732422	18122.277344
1423.611328	18141.966797
1422.490234	17966.093750
1421.369141	18065.373047
1420.246094	18037.324219
1419.125000	18266.105469
1418.001953	17681.300781
1416.880859	18232.685547
1415.757813	18093.316406
1414.634766	18069.824219
1413.511719	18162.154297
1412.388672	18097.791016
1411.265625	17824.601563
1410.142578	17975.933594
1409.019531	17977.443359
1407.894531	18312.480469
1406.771484	17889.712891
1405.646484	17755.144531
1404.521484	17788.435547
1403.396484	18209.437500
1402.271484	18149.691406
1401.146484	17861.035156
1400.021484	17851.224609
1398.896484	17934.316406
1397.771484	18037.769531
1396.644531	17805.953125
1395.519531	17918.449219
1394.392578	18150.917969
1393.267578	17982.587891
1392.140625	17909.384766
1391.013672	17790.939453
1389.886719	18272.179688
1388.759766	18047.378906
1387.632813	18159.699219
1386.505859	18247.101563
1385.376953	18189.751953
1384.250000	18247.726563
1383.121094	18312.462891
1381.992188	17936.451172
1380.865234	17678.070313
1379.736328	17873.912109
1378.607422	17687.917969
1377.478516	17854.328125
1376.349609	18020.681641
1375.218750	17706.056641
1374.089844	17854.318359
1372.960938	17682.023438
1371.830078	17712.888672
1370.699219	17741.488281
1369.570313	17925.736328
1368.439453	17647.531250
1367.308594	17813.691406
1366.177734	17704.707031
1365.046875	17751.314453
1363.916016	17595.042969
1362.783203	17558.267578
1361.652344	17388.558594
1360.519531	17606.406250
1359.388672	17610.191406
1358.255859	17530.644531
1357.123047	17996.048828
1355.990234	17641.794922
1354.857422	17755.867188
1353.724609	17743.865234
1352.591797	17621.605469
1351.458984	17722.123047
1350.324219	17750.621094
1349.191406	17709.388672
1348.056641	17719.888672
1346.921875	17420.113281
1345.789063	17713.900391
1344.654297	17537.843750
1343.519531	17903.421875
1342.384766	17817.263672
1341.248047	17697.437500
1340.113281	17981.943359
1338.978516	17987.886719
1337.841797	17960.148438
1336.707031	17984.052734
1335.570313	17848.583984
1334.433594	18020.613281
1333.296875	17597.978516
1332.160156	17810.371094
1331.023438	17654.835938
1329.886719	17528.505859
1328.750000	17713.892578
1327.613281	17701.929688
1326.474609	17896.189453
1325.337891	17852.824219
1324.199219	17990.972656
1323.060547	18030.496094
1321.921875	18009.527344
1320.783203	18136.380859
1319.644531	18086.289063
1318.505859	17794.417969
1317.367188	17816.031250
1316.226563	17591.447266
1315.087891	17530.291016
1313.947266	17623.531250
1312.808594	17792.796875
1311.667969	17870.304688
1310.527344	17750.998047
1309.386719	17761.410156
1308.246094	18033.365234
1307.105469	18273.937500
1305.964844	18387.048828
1304.822266	18752.599609
1303.681641	19345.888672
1302.541016	19264.439453
1301.398438	19281.279297
1300.255859	19407.519531
1299.113281	19509.158203
1297.970703	19220.154297
1296.828125	18844.212891
1295.685547	18501.867188
1294.542969	18753.060547
1293.400391	18629.437500
1292.255859	18048.671875
1291.113281	18411.300781
1289.968750	18240.978516
1288.824219	18264.638672
1287.681641	18335.093750
1286.537109	17897.476563
1285.392578	17669.427734
1284.246094	17584.017578
1283.101563	17719.123047
1281.957031	17306.398438
1280.810547	17530.560547
1279.666016	17316.119141
1278.519531	17415.566406
1277.375000	17279.101563
1276.228516	17349.595703
1275.082031	17295.494141
1273.935547	17281.443359
1272.789063	17302.978516
1271.642578	17340.068359
1270.494141	17448.281250
1269.347656	17714.261719
1268.199219	17771.259766
1267.052734	18088.199219
1265.904297	18027.375000
1264.755859	18110.943359
1263.607422	18383.246094
1262.458984	18475.607422
1261.310547	18117.279297
1260.162109	18020.986328
1259.013672	17953.574219
1257.863281	17784.117188
1256.714844	17703.457031
1255.564453	17460.900391
1254.414063	17477.900391
1253.265625	17359.636719
1252.115234	17381.080078
1250.964844	17422.464844
1249.812500	17321.998047
1248.662109	17558.373047
1247.511719	17542.103516
1246.361328	17811.585938
1245.208984	17633.603516
1244.056641	18088.982422
1242.906250	18342.736328
1241.753906	17921.257813
1240.601563	17942.562500
1239.449219	17808.962891
1238.296875	17741.781250
1237.144531	17849.376953
1235.990234	17404.005859
1234.837891	17332.501953
1233.683594	16898.423828
1232.531250	17039.246094
1231.376953	17009.833984
1230.222656	16889.826172
1229.068359	16986.386719
1227.914063	16804.568359
1226.759766	16543.296875
1225.605469	16783.408203
1224.451172	16603.923828
1223.294922	16967.566406
1222.140625	16865.363281
1220.984375	16681.539063
1219.828125	16702.980469
1218.673828	16627.343750
1217.517578	16620.111328
1216.361328	16895.164063
1215.205078	16733.537109
1214.046875	16578.580078
1212.890625	16774.146484
1211.734375	16733.833984
1210.576172	16979.986328
1209.419922	16933.041016
1208.261719	17051.316406
1207.103516	17114.492188
1205.945313	16909.003906
1204.787109	16853.294922
1203.628906	16962.697266
1202.470703	16801.353516
1201.310547	16862.314453
1200.152344	16551.435547
1198.992188	16526.628906
1197.833984	16682.175781
1196.673828	16457.244141
1195.513672	16379.696289
1194.353516	16706.650391
1193.193359	16758.759766
1192.033203	16430.683594
1190.873047	16471.833984
1189.712891	16673.333984
1188.550781	16576.056641
1187.390625	16577.632813
1186.228516	16530.904297
1185.066406	16600.539063
1183.904297	16498.949219
1182.742188	16608.064453
1181.580078	16581.107422
1180.417969	16562.933594
1179.255859	16755.330078
1178.093750	16748.097656
1176.929688	16938.203125
1175.767578	16983.554688
1174.603516	16776.820313
1173.439453	17210.083984
1172.275391	17143.615234
1171.113281	16919.431641
1169.947266	16758.845703
1168.783203	17020.992188
1167.619141	16770.666016
1166.455078	16691.189453
1165.289063	16631.439453
1164.125000	16543.257813
1162.958984	16452.917969
1161.792969	16743.285156
1160.626953	16644.191406
1159.460938	16862.253906
1158.294922	16701.945313
1157.128906	16919.921875
1155.962891	16468.925781
1154.796875	16758.990234
1153.628906	16461.138672
1152.462891	16405.902344
1151.294922	16540.732422
1150.126953	16332.614258
1148.958984	16419.367188
1147.791016	16145.839844
1146.623047	15950.991211
1145.455078	15970.102539
1144.287109	16416.925781
1143.117188	16084.670898
1141.949219	16125.563477
1140.779297	15943.967773
1139.609375	15925.989258
1138.441406	15966.886719
1137.271484	15589.208008
1136.101563	15601.812500
1134.931641	15762.601563
1133.759766	15916.798828
1132.589844	15502.348633
1131.419922	15789.404297
1130.248047	15749.693359
1129.078125	15801.448242
1127.906250	15833.589844
1126.734375	15695.941406
1125.562500	15793.377930
1124.390625	15810.272461
1123.218750	15827.160156
1122.046875	15922.348633
1120.875000	15995.755859
1119.701172	15986.507813
1118.529297	15985.959961
1117.355469	16170.175781
1116.181641	16291.300781
1115.007813	16425.423828
1113.833984	16466.076172
1112.660156	16975.916016
1111.486328	17064.242188
1110.312500	16911.503906
1109.138672	16923.820313
1107.962891	17101.107422
1106.789063	17287.017578
1105.613281	17038.861328
1104.437500	17168.304688
1103.261719	17349.767578
1102.085938	17930.244141
1100.910156	17857.794922
1099.734375	17542.537109
1098.558594	17450.667969
1097.380859	17621.087891
1096.205078	17436.052734
1095.027344	16906.578125
1093.851563	16652.404297
1092.673828	16344.168945
1091.496094	16252.593750
1090.318359	16293.126953
1089.140625	15946.141602
1087.962891	16144.717773
1086.783203	16222.036133
1085.605469	16377.222656
1084.427734	16212.178711
1083.248047	16806.398438
1082.068359	17205.779297
1080.888672	17328.253906
1079.708984	17796.589844
1078.529297	18195.595703
1077.349609	18503.695313
1076.169922	18967.267578
1074.990234	19644.558594
1073.808594	19837.771484
1072.628906	19784.714844
1071.447266	19584.843750
1070.265625	19354.814453
1069.085938	19116.228516
1067.904297	18970.527344
1066.722656	18639.300781
1065.539063	17967.308594
1064.357422	17798.146484
1063.175781	17363.765625
1061.992188	16888.560547
1060.810547	16711.042969
1059.626953	16546.519531
1058.443359	16401.449219
1057.259766	16392.185547
1056.076172	16331.215820
1054.892578	16311.195313
1053.708984	16116.724609
1052.525391	16090.286133
1051.339844	15762.429688
1050.156250	15723.142578
1048.970703	15389.002930
1047.787109	15276.626953
1046.601563	15299.836914
1045.416016	15226.235352
1044.230469	15400.003906
1043.044922	15079.104492
1041.859375	15263.587891
1040.671875	15093.301758
1039.486328	15232.583008
1038.298828	15378.261719
1037.113281	15311.176758
1035.925781	15070.103516
1034.738281	15402.601563
1033.550781	15606.133789
1032.363281	15599.173828
1031.175781	15630.857422
1029.988281	15598.136719
1028.798828	15756.426758
1027.611328	15788.066406
1026.421875	16019.209961
1025.232422	16241.694336
1024.044922	16509.138672
1022.855469	16255.441406
1021.666016	16636.416016
1020.476563	16477.097656
1019.287109	16249.251953
1018.095703	16117.908203
1016.906250	15648.109375
1015.714844	15418.378906
1014.525391	15220.851563
1013.333984	15027.673828
1012.142578	15072.205078
1010.951172	15013.973633
1009.759766	14668.973633
1008.568359	14953.204102
1007.376953	14839.394531
1006.183594	14571.607422
1004.992188	14637.555664
1003.798828	14581.592773
1002.607422	14784.348633
1001.414063	14258.096680
1000.220703	14627.544922
999.027344	14627.179688
997.833984	14368.291992
996.640625	14515.367188
995.447266	14508.613281
994.251953	14241.334961
993.058594	14783.345703
991.863281	14434.991211
990.667969	14586.195313
989.474609	14391.640625
988.279297	14363.575195
987.083984	14371.783203
985.888672	14375.722656
984.691406	14334.876953
983.496094	14085.092773
982.300781	14511.174805
981.103516	14512.954102
979.906250	14367.687500
978.710938	14173.464844
977.513672	14234.949219
976.316406	14279.372070
975.119141	14383.408203
973.921875	14061.558594
972.722656	14163.466797
971.525391	14416.463867
970.326172	14260.768555
969.128906	14294.500000
967.929688	14426.080078
966.730469	14230.046875
965.531250	14136.162109
964.332031	14231.552734
963.132813	14107.935547
961.933594	14199.045898
960.734375	14175.361328
959.533203	14357.797852
958.333984	14348.964844
957.132813	14148.960938
955.931641	14161.403320
954.730469	14203.569336
953.529297	14326.396484
952.328125	14504.371094
951.126953	14523.109375
949.925781	14756.159180
948.724609	15020.953125
947.521484	15052.319336
946.318359	15064.585938
945.117188	15252.850586
943.914063	14781.683594
942.710938	14596.848633
941.507813	14573.152344
940.304688	14424.439453
939.101563	14421.966797
937.896484	14233.081055
936.693359	14004.018555
935.488281	13959.265625
934.285156	13927.231445
933.080078	13829.583984
931.875000	13878.009766
930.669922	13860.816406
929.464844	13928.261719
928.259766	14033.759766
927.054688	13766.969727
925.847656	13908.409180
924.642578	13840.479492
923.435547	13751.432617
922.228516	13930.844727
921.023438	13780.527344
919.816406	13900.711914
918.609375	14001.840820
917.402344	14035.345703
916.193359	13994.925781
914.986328	13775.045898
913.777344	13964.791016
912.570313	13975.059570
911.361328	13962.110352
910.152344	14105.303711
908.945313	13894.030273
907.736328	13720.794922
906.527344	13809.123047
905.316406	13781.451172
904.107422	13736.921875
902.898438	13667.114258
901.687500	13730.099609
900.478516	13474.890625
899.267578	13626.369141
898.056641	13701.966797
896.845703	13638.540039
895.634766	13537.232422
894.423828	13682.279297
893.212891	13580.998047
892.000000	13738.613281
890.789063	13458.499023
889.576172	13599.250000
888.363281	13634.777344
887.152344	13674.498047
885.939453	13575.422852
884.726563	13577.295898
883.513672	13457.250000
882.298828	13448.632813
881.085938	13576.604492
879.873047	13628.897461
878.658203	13718.982422
877.443359	13605.313477
876.230469	13514.781250
875.015625	13823.186523
873.800781	14013.933594
872.585938	14351.530273
871.371094	14355.359375
870.154297	14684.387695
868.939453	14788.847656
867.722656	14983.456055
866.507813	14720.854492
865.291016	14311.579102
864.074219	14369.911133
862.857422	14256.358398
861.640625	13828.511719
860.423828	13706.708984
859.207031	13545.145508
857.990234	13634.973633
856.771484	13488.136719
855.554688	13316.223633
854.335938	13512.805664
853.117188	13479.086914
851.898438	13359.580078
850.679688	13210.821289
849.460938	13283.859375
848.242188	13363.147461
847.023438	13281.381836
845.802734	13214.281250
844.583984	12977.871094
843.363281	13264.080078
842.142578	13314.042969
840.921875	13292.947266
839.701172	13117.267578
838.480469	13158.874023
837.259766	13100.224609
836.039063	13041.595703
834.816406	13371.285156
833.595703	13018.322266
832.373047	13068.254883
831.152344	13059.746094
829.929688	13044.981445
828.707031	12930.101563
827.484375	13067.603516
826.261719	13240.503906
825.037109	12983.884766
823.814453	12952.467773
822.591797	13242.004883
821.367188	12995.933594
820.142578	13145.779297
818.917969	12939.385742
817.695313	13116.261719
816.470703	13093.181641
815.244141	12888.983398
814.019531	13065.775391
812.794922	13038.551758
811.568359	13075.841797
810.343750	13121.440430
809.117188	13002.695313
807.890625	13079.486328
806.666016	13093.868164
805.439453	12979.345703
804.210938	12933.458008
802.984375	13101.651367
801.757813	13072.380859
800.531250	13076.361328
799.302734	13144.735352
798.074219	13186.084961
796.847656	13503.596680
795.619141	13366.319336
794.390625	13494.791992
793.162109	13633.596680
791.933594	13855.356445
790.703125	14211.896484
789.474609	14321.463867
788.244141	14847.869141
787.015625	15394.829102
785.785156	16109.537109
784.554688	16935.937500
783.324219	17824.228516
782.093750	18585.808594
780.863281	18352.625000
779.632813	18320.460938
778.400391	17548.902344
777.169922	16672.000000
775.937500	15772.624023
774.707031	15150.949219
773.474609	14515.000000
772.242188	14160.703125
771.009766	13773.424805
769.777344	13572.458008
768.544922	13330.194336
767.310547	13245.177734
766.078125	12765.280273
764.843750	12969.800781
763.609375	12783.612305
762.376953	12746.275391
761.142578	12851.517578
759.908203	12803.852539
758.673828	12824.363281
757.437500	12842.800781
756.203125	12629.981445
754.968750	12834.240234
753.732422	12588.470703
752.496094	12677.099609
751.261719	12501.593750
750.025391	12617.024414
748.789063	12600.408203
747.552734	12548.739258
746.316406	12470.284180
745.078125	12488.746094
743.841797	12622.627930
742.603516	12663.725586
741.367188	12923.217773
740.128906	13114.636719
738.890625	13130.910156
737.652344	13295.454102
736.414063	13435.231445
735.175781	13529.669922
733.935547	13395.599609
732.697266	13212.184570
731.458984	12948.585938
730.218750	12870.230469
728.978516	12905.031250
727.738281	12703.316406
726.498047	12793.651367
725.257813	12489.232422
724.017578	12787.175781
722.777344	12526.020508
721.535156	12571.115234
720.294922	12599.759766
719.052734	12574.988281
717.812500	12492.720703
716.570313	12562.428711
715.328125	12584.893555
714.085938	12535.507813
712.843750	12383.524414
711.599609	12330.085938
710.357422	12506.442383
709.113281	12352.489258
707.871094	12438.541016
706.626953	12444.593750
705.382813	12528.548828
704.138672	12442.340820
702.894531	12391.001953
701.650391	12462.627930
700.406250	12384.668945
699.160156	12458.318359
697.916016	12617.958008
696.669922	12656.730469
695.425781	12615.641602
694.179688	12582.754883
692.933594	13004.229492
691.687500	12840.325195
690.441406	13040.649414
689.193359	13304.316406
687.947266	13848.084961
686.701172	13794.567383
685.453125	14393.263672
684.205078	14452.097656
682.957031	14829.742188
681.710938	14596.267578
680.462891	14514.061523
679.212891	14227.610352
677.964844	14090.351563
676.716797	13740.769531
675.466797	13156.515625
674.218750	12837.833984
672.968750	12592.737305
671.718750	12368.131836
670.468750	12194.609375
669.218750	12267.974609
667.968750	11888.534180
666.718750	12090.395508
665.466797	11806.941406
664.216797	11939.437500
662.964844	11923.103516
661.714844	11776.356445
660.462891	11780.428711
659.210938	11908.761719
657.958984	11635.815430
656.707031	11753.946289
655.455078	11621.604492
654.201172	11957.512695
652.949219	11743.768555
651.695313	11729.524414
650.441406	11758.011719
649.189453	11808.865234
647.935547	11707.158203
646.681641	11595.318359
645.427734	11404.221680
644.171875	11666.515625
642.917969	11481.569336
641.662109	11491.772461
640.408203	11483.685547
639.152344	11532.481445
637.896484	11298.938477
636.640625	11327.441406
635.384766	11516.333984
634.128906	11479.827148
632.873047	11522.490234
631.617188	11272.915039
630.359375	11374.438477
629.103516	11469.839844
627.845703	11123.044922
626.587891	11388.802734
625.330078	11255.035156
624.072266	11346.335938
622.814453	11348.421875
621.556641	11271.472656
620.296875	11285.727539
619.039063	11405.318359
617.779297	11306.118164
616.521484	11117.847656
615.261719	11350.791016
614.001953	11188.893555
612.742188	11314.467773
611.482422	11395.477539
610.220703	11351.009766
608.960938	11446.144531
607.699219	11369.320313
606.439453	11458.350586
605.177734	11496.801758
603.916016	11381.596680
602.654297	11448.344727
601.392578	11500.921875
600.130859	11553.480469
598.869141	11608.041016
597.607422	11721.157227
596.343750	11680.751953
595.080078	11309.220703
593.818359	11412.235352
592.554688	11448.604492
591.291016	11331.584961
590.027344	11111.702148
588.763672	10986.711914
587.498047	10857.730469
586.234375	11138.181641
584.970703	10999.135742
583.705078	11055.689453
582.439453	10868.331055
581.173828	10906.749023
579.908203	10743.659180
578.642578	10874.755859
577.376953	10866.824219
576.111328	10877.020508
574.843750	10669.749023
573.578125	10694.067383
572.310547	10660.003906
571.042969	10716.513672
569.777344	10640.202148
568.509766	10584.035156
567.242188	10680.756836
565.972656	10694.989258
564.705078	10749.431641
563.437500	10761.635742
562.167969	10643.183594
560.898438	10711.672852
559.630859	10671.632813
558.361328	10649.688477
557.091797	10683.992188
555.822266	10700.209961
554.550781	10808.786133
553.281250	10937.401367
552.011719	11027.833008
550.740234	11168.405273
549.468750	11244.718750
548.199219	11481.501953
546.927734	11323.048828
545.656250	11347.151367
544.384766	11236.899414
543.111328	11206.876953
541.839844	10745.907227
540.568359	10705.959961
539.294922	10676.044922
538.021484	10570.009766
536.750000	10458.001953
535.476563	10259.916992
534.203125	10474.387695
532.927734	10204.293945
531.654297	10382.668945
530.380859	10388.867188
529.105469	10297.015625
527.832031	10541.300781
526.556641	10331.437500
525.281250	10537.631836
524.005859	10359.834961
522.730469	10174.101563
521.455078	10322.247070
520.179688	10240.508789
518.902344	10206.754883
517.626953	10216.965820
516.349609	10287.096680
515.074219	10339.228516
513.796875	10087.828125
512.519531	10267.749023
511.242188	10319.855469
509.964844	10429.820313
508.685547	10517.797852
507.408203	10829.190430
506.128906	11409.760742
504.851563	11980.156250
503.572266	13012.964844
502.292969	13535.034180
501.013672	13873.534180
499.734375	13510.388672
498.455078	12942.127930
497.173828	12029.400391
495.894531	11290.288086
494.613281	11025.431641
493.333984	10898.062500
492.052734	10677.165039
490.771484	10742.982422
489.490234	10669.462891
488.208984	10687.501953
486.927734	10795.062500
485.644531	11119.402344
484.363281	11411.808594
483.080078	11270.626953
481.796875	10996.290039
480.515625	10879.082031
479.232422	10883.147461
477.949219	10394.415039
476.666016	10424.390625
475.380859	10172.288086
474.097656	10051.351563
472.812500	9849.043945
471.529297	9761.956055
470.244141	9853.548828
468.958984	9800.229492
467.673828	9963.217773
466.388672	9852.361328
465.103516	9777.249023
463.818359	9874.707031
462.531250	9793.666992
461.246094	9671.021484
459.958984	9827.913086
458.671875	9546.751953
457.384766	9675.868164
456.097656	9684.084961
454.810547	9749.744141
453.523438	9587.622070
452.236328	9710.698242
450.947266	9645.649414
449.660156	9556.870117
448.371094	9600.721680
447.082031	9488.234375
445.792969	9690.356445
444.503906	9668.883789
443.214844	9742.349609
441.925781	9675.394531
440.634766	9655.912109
439.345703	9861.780273
438.054688	9800.767578
436.765625	10008.512695
435.474609	10105.548828
434.183594	10534.404297
432.892578	10702.413086
431.601563	10546.522461
430.308594	10834.900391
429.017578	10840.904297
427.724609	10456.131836
426.433594	10095.172852
425.140625	9809.309570
423.847656	9610.339844
422.554688	9584.994141
421.261719	9340.778320
419.968750	9421.950195
418.673828	9296.119141
417.380859	9203.835938
416.085938	9202.227539
414.792969	9228.201172
413.498047	9208.860352
412.203125	9077.265625
410.908203	9168.227539
409.613281	9137.093750
408.316406	8962.274414
407.021484	9090.601563
405.726563	9067.367188
404.429688	8981.183594
403.132813	9007.151367
401.835938	9017.376953
400.539063	9133.782227
399.242188	9100.728516
397.945313	8918.294922
396.648438	9015.001953
395.349609	9133.290039
394.052734	8856.641602
392.753906	8990.628906
391.455078	8928.173828
390.158203	8846.103516
388.857422	8974.131836
387.558594	8772.342773
386.259766	8955.291992
384.960938	8737.877930
383.660156	8826.596680
382.361328	8781.897461
381.060547	8788.205078
379.759766	8843.533203
378.458984	8802.774414
377.158203	8801.234375
375.857422	8640.946289
374.556641	8711.935547
373.253906	8659.472656
371.953125	8977.243164
370.650391	8820.952148
369.347656	8825.282227
368.044922	8892.259766
366.742188	8804.575195
365.439453	8914.587891
364.136719	9048.043945
362.833984	9283.185547
361.529297	9559.321289
360.226563	9624.142578
358.921875	10236.448242
357.617188	10654.989258
356.312500	11337.268555
355.007813	11671.432617
353.703125	12218.466797
352.398438	12929.417969
351.091797	13183.039063
349.787109	13475.630859
348.480469	13289.720703
347.175781	12697.795898
345.869141	11877.698242
344.562500	10964.209961
343.255859	10349.586914
341.947266	9856.136719
340.640625	9612.535156
339.333984	9532.839844
338.025391	9418.074219
336.716797	9227.315430
335.410156	9175.017578
334.101563	9040.884766
332.792969	8908.748047
331.482422	8870.169922
330.173828	8761.482422
328.865234	8732.680664
327.554688	8684.416992
326.246094	8525.200195
324.935547	8595.725586
323.625000	8471.610352
322.314453	8388.400391
321.003906	8338.292969
319.693359	8286.256836
318.380859	8115.606445
317.070313	8355.294922
315.757813	8246.903320
314.447266	8299.881836
313.134766	8292.594727
311.822266	8197.872070
310.509766	8107.067383
309.197266	8062.912109
307.884766	8055.670898
306.570313	8093.091797
305.257813	8179.033691
303.943359	8210.595703
302.628906	8055.839355
301.314453	8079.650391
300.000000	8136.432617
298.685547	8224.229492
297.371094	8183.999023
296.056641	8246.548828
294.740234	8248.978516
293.425781	8466.559570
292.109375	8459.258789
290.792969	8353.141602
289.476563	8436.916016
288.160156	8607.823242
286.843750	8493.987305
285.527344	8515.731445
284.208984	8512.299805
282.892578	8601.777344
281.574219	8501.568359
280.255859	8527.164063
278.939453	8303.189453
277.621094	8367.495117
276.300781	8093.346191
274.982422	8062.920898
273.664063	7980.309082
272.343750	7880.330078
271.025391	7869.282715
269.705078	7867.899902
268.384766	7578.670410
267.064453	7811.051758
265.744141	7755.605957
264.423828	7742.657715
263.103516	7559.830078
261.781250	7635.707520
260.460938	7628.575684
259.138672	7654.247559
257.816406	7529.436523
256.494141	7512.682129
255.171875	7399.510742
253.849609	7492.687500
252.527344	7468.236328
251.205078	7557.513184
249.880859	7461.755859
248.558594	7394.933105
247.234375	7513.071289
245.910156	7556.049805
244.585938	7475.764648
243.261719	7547.615234
241.937500	7561.688477
240.611328	7452.572754
239.287109	7351.192871
237.960938	7540.381348
236.636719	7437.097656
235.310547	7614.663086
233.984375	7453.710449
232.658203	7619.674316
231.332031	7747.131836
230.003906	7757.300293
228.677734	7638.711914
227.351563	7543.221191
226.023438	7407.422363
224.695313	7515.597168
223.367188	7462.424805
222.039063	7328.631348
220.710938	7369.573242
219.382813	7143.715332
218.054688	7077.211914
216.724609	7125.850586
215.394531	7191.736328
214.066406	7163.618164
212.736328	7100.992676
211.406250	7155.343262
210.076172	7039.065430
208.746094	7147.073242
207.414063	6990.595215
206.083984	7081.329102
204.751953	6911.508301
203.421875	7094.156250
202.089844	7073.757324
200.757813	7055.279297
199.425781	7109.549805
198.093750	6972.408691
196.759766	6902.291016
195.427734	7050.307617
194.095703	6863.513184
192.761719	6803.013672
191.427734	6885.952637
190.093750	6930.624512
188.759766	7013.511230
187.425781	7071.522949
186.091797	7114.226563
184.757813	7168.378418
183.421875	7371.506836
182.085938	7479.070313
180.751953	7391.822266
179.416016	7373.335938
178.080078	7398.759766
176.744141	7198.967773
175.408203	7264.484863
174.070313	7177.350098
172.734375	7260.015137
171.396484	6980.285645
170.060547	7021.004883
168.722656	6909.188965
167.384766	6869.846680
166.046875	6761.907715
164.708984	6741.659668
163.369141	6635.686035
162.031250	6590.704102
160.691406	6402.900879
159.353516	6415.100098
158.013672	6189.317383
156.673828	6292.916504
155.333984	6251.839355
153.994141	6205.068359
152.654297	6266.754883
151.312500	6079.238770
149.972656	6072.460449
148.630859	6075.190918
147.289063	6142.559082
145.947266	6160.482910
144.605469	5999.756348
143.263672	6044.299805
141.921875	6132.522461
140.580078	6207.417480
139.236328	6092.374023
137.894531	6239.403320
136.550781	6040.862793
135.207031	6034.101074
133.863281	5892.599609
132.519531	5950.379395
131.175781	5793.765625
129.832031	5745.322266
128.486328	5552.767090
127.142578	5352.695313
125.796875	5264.544434
124.451172	5184.005859
123.105469	5139.502441
121.759766	4835.432129
120.414063	4719.017578
119.068359	4579.915039
117.720703	4541.229980
116.375000	4309.429688
115.027344	4098.535156
113.679688	3698.439697
112.332031	3336.333984
110.984375	3036.794922
109.636719	2707.093506
108.289063	2301.852051
106.939453	1974.288086
105.591797	1597.680420
104.242188	1323.288208
102.892578	1067.893677
