#Wave		#Intensity
3203.346680	35750.300781
3202.517578	34387.828125
3201.688477	34738.996094
3200.858398	35133.097656
3200.029297	34607.921875
3199.199219	34408.714844
3198.370117	34768.871094
3197.540039	34535.902344
3196.709961	34130.968750
3195.879883	33968.820313
3195.048828	34635.921875
3194.218750	34430.757813
3193.387695	34498.894531
3192.557617	34097.359375
3191.726563	34361.953125
3190.895508	34298.113281
3190.064453	34209.750000
3189.233398	33744.093750
3188.401367	33959.496094
3187.570313	33984.695313
3186.738281	34181.589844
3185.907227	33933.894531
3185.075195	34026.515625
3184.243164	33760.539063
3183.411133	34239.242188
3182.578125	33884.468750
3181.746094	33630.890625
3180.913086	33619.351563
3180.080078	34214.128906
3179.248047	33688.128906
3178.415039	33893.925781
3177.581055	33808.886719
3176.748047	33824.863281
3175.915039	33498.144531
3175.081055	33621.238281
3174.248047	33322.179688
3173.414063	33488.078125
3172.580078	33445.988281
3171.746094	33232.707031
3170.912109	33089.796875
3170.077148	33383.988281
3169.243164	33592.515625
3168.408203	33568.773438
3167.573242	33169.292969
3166.738281	33331.937500
3165.903320	33351.000000
3165.068359	33321.203125
3164.233398	33364.679688
3163.397461	33487.503906
3162.562500	33115.886719
3161.726563	33287.531250
3160.890625	33001.488281
3160.054688	33121.238281
3159.218750	32597.417969
3158.382813	32796.476563
3157.545898	33050.351563
3156.709961	32663.972656
3155.873047	32893.402344
3155.036133	33186.753906
3154.199219	32898.039063
3153.362305	33090.761719
3152.525391	32631.578125
3151.687500	32772.503906
3150.850586	32599.750000
3150.012695	32640.166016
3149.174805	32747.535156
3148.336914	32559.646484
3147.499023	32566.574219
3146.661133	32585.666016
3145.823242	32759.898438
3144.984375	31906.023438
3144.145508	32457.398438
3143.307617	32634.603516
3142.468750	32608.064453
3141.629883	32563.294922
3140.790039	32600.595703
3139.951172	32197.283203
3139.112305	32310.582031
3138.272461	32296.263672
3137.432617	32084.533203
3136.592773	32261.562500
3135.752930	32496.222656
3134.913086	32430.271484
3134.073242	32182.228516
3133.232422	32647.423828
3132.392578	32363.013672
3131.551758	32667.240234
3130.710938	32052.292969
3129.870117	32047.126953
3129.029297	32217.833984
3128.188477	31976.164063
3127.346680	32328.701172
3126.505859	32356.830078
3125.664063	32303.130859
3124.822266	32303.984375
3123.980469	32589.593750
3123.138672	32320.832031
3122.296875	32682.054688
3121.455078	32104.519531
3120.612305	32271.906250
3119.769531	31985.203125
3118.927734	32246.371094
3118.084961	32283.537109
3117.242188	31812.416016
3116.398438	32681.498047
3115.555664	32086.460938
3114.712891	31842.394531
3113.869141	32073.093750
3113.025391	32113.269531
3112.181641	32114.138672
3111.337891	32250.996094
3110.494141	32037.310547
3109.650391	32131.841797
3108.805664	31981.675781
3107.961914	31922.158203
3107.117188	31853.601563
3106.272461	31984.324219
3105.427734	31979.167969
3104.583008	32475.021484
3103.737305	31950.753906
3102.892578	32199.042969
3102.046875	31943.468750
3101.202148	31965.464844
3100.356445	31752.228516
3099.510742	32039.583984
3098.665039	31696.769531
3097.818359	31962.939453
3096.972656	31683.535156
3096.125977	32109.324219
3095.280273	31938.443359
3094.433594	31689.298828
3093.586914	31922.121094
3092.740234	32025.382813
3091.892578	31911.828125
3091.045898	32382.318359
3090.198242	32061.060547
3089.351563	32263.539063
3088.503906	32249.308594
3087.656250	32517.875000
3086.808594	31721.546875
3085.960938	32215.666016
3085.112305	32002.992188
3084.264648	32009.857422
3083.416016	32233.148438
3082.567383	31996.527344
3081.718750	32114.574219
3080.870117	32205.539063
3080.021484	32341.535156
3079.172852	32231.195313
3078.323242	31943.708984
3077.473633	32193.777344
3076.625000	32065.498047
3075.775391	32057.326172
3074.925781	32256.232422
3074.075195	32563.097656
3073.225586	32239.828125
3072.375977	32306.621094
3071.525391	32043.478516
3070.674805	32437.140625
3069.824219	31853.248047
3068.973633	32039.966797
3068.123047	32349.511719
3067.272461	31870.802734
3066.420898	32327.091797
3065.570313	32148.121094
3064.718750	31999.158203
3063.867188	32260.539063
3063.015625	32405.052734
3062.164063	31842.962891
3061.311523	32574.203125
3060.459961	32060.152344
3059.607422	32378.164063
3058.755859	32543.482422
3057.903320	32400.623047
3057.050781	32180.044922
3056.197266	32141.958984
3055.344727	32169.664063
3054.492188	32568.062500
3053.638672	32290.802734
3052.785156	32877.332031
3051.932617	32405.884766
3051.079102	32394.681641
3050.224609	32502.964844
3049.371094	32294.628906
3048.517578	32122.193359
3047.663086	32463.349609
3046.808594	32320.792969
3045.955078	32482.722656
3045.100586	32599.833984
3044.245117	32197.734375
3043.390625	32574.398438
3042.536133	32315.605469
3041.680664	32444.593750
3040.825195	32612.304688
3039.970703	32797.847656
3039.115234	32658.417969
3038.258789	32766.402344
3037.403320	33002.488281
3036.547852	32556.207031
3035.691406	32854.804688
3034.835938	32641.009766
3033.979492	32543.425781
3033.123047	32737.666016
3032.266602	32794.898438
3031.409180	32899.738281
3030.552734	33153.347656
3029.695313	33040.875000
3028.838867	32818.359375
3027.981445	33354.445313
3027.124023	33078.414063
3026.266602	33632.125000
3025.409180	33626.695313
3024.550781	33121.855469
3023.693359	33366.175781
3022.834961	33069.558594
3021.976563	33402.945313
3021.118164	33504.500000
3020.259766	33329.785156
3019.401367	33903.523438
3018.541992	33476.402344
3017.683594	33764.917969
3016.824219	34026.621094
3015.964844	33819.308594
3015.106445	33879.132813
3014.246094	34013.113281
3013.386719	34061.015625
3012.527344	34731.765625
3011.666992	34729.125000
3010.807617	34676.074219
3009.947266	35118.125000
3009.086914	35254.730469
3008.226563	35373.511719
3007.366211	35969.312500
3006.504883	35957.582031
3005.644531	36360.554688
3004.783203	37018.101563
3003.921875	38409.812500
3003.060547	39025.363281
3002.199219	40623.519531
3001.337891	43014.375000
3000.476563	44676.472656
2999.614258	48000.886719
2998.751953	52140.726563
2997.890625	58178.175781
2997.028320	65588.859375
2996.166016	72946.875000
2995.302734	80867.195313
2994.440430	86257.617188
2993.577148	86902.757813
2992.714844	83641.179688
2991.851563	76891.367188
2990.988281	68947.351563
2990.125000	61505.042969
2989.261719	55972.835938
2988.397461	51239.617188
2987.534180	49427.589844
2986.669922	46910.695313
2985.805664	45427.531250
2984.941406	44493.671875
2984.077148	44167.863281
2983.212891	44084.035156
2982.348633	43967.789063
2981.483398	45104.824219
2980.619141	45937.808594
2979.753906	47486.851563
2978.888672	50220.234375
2978.023438	53406.558594
2977.158203	56208.812500
2976.291992	59496.242188
2975.426758	62099.257813
2974.560547	65060.722656
2973.694336	67620.773438
2972.828125	70462.625000
2971.961914	73683.273438
2971.095703	77406.148438
2970.229492	83314.179688
2969.362305	89061.421875
2968.495117	93630.148438
2967.628906	93682.664063
2966.761719	91629.617188
2965.894531	87707.242188
2965.026367	81293.210938
2964.159180	74766.617188
2963.291016	70002.484375
2962.423828	64810.882813
2961.555664	61266.164063
2960.687500	59379.277344
2959.819336	57193.429688
2958.951172	56006.675781
2958.082031	55709.902344
2957.213867	55879.964844
2956.344727	56223.136719
2955.475586	57475.906250
2954.606445	59761.058594
2953.737305	61361.941406
2952.868164	63730.785156
2951.999023	66031.406250
2951.128906	67296.234375
2950.258789	67197.406250
2949.388672	66377.531250
2948.519531	64725.582031
2947.648438	61447.867188
2946.778320	58393.871094
2945.908203	55915.011719
2945.037109	54798.867188
2944.166992	52883.632813
2943.295898	51291.089844
2942.424805	51437.953125
2941.553711	50917.421875
2940.681641	50780.425781
2939.810547	51108.710938
2938.938477	51673.855469
2938.067383	51952.160156
2937.195313	53379.738281
2936.323242	54768.839844
2935.451172	57198.312500
2934.578125	59992.394531
2933.706055	63755.910156
2932.833008	68193.242188
2931.960938	74268.250000
2931.087891	79210.750000
2930.214844	84399.921875
2929.341797	88869.000000
2928.467773	91313.164063
2927.594727	93210.609375
2926.720703	92868.625000
2925.847656	92074.382813
2924.973633	90828.101563
2924.099609	90072.375000
2923.225586	89596.914063
2922.350586	88652.046875
2921.476563	89454.218750
2920.601563	89707.992188
2919.727539	89961.679688
2918.852539	90573.789063
2917.977539	90742.742188
2917.102539	91270.023438
2916.226563	91406.757813
2915.351563	92061.921875
2914.475586	92090.718750
2913.599609	92984.328125
2912.724609	93007.132813
2911.848633	93315.210938
2910.971680	93410.710938
2910.095703	94859.320313
2909.219727	94506.484375
2908.342773	92347.242188
2907.465820	90971.101563
2906.588867	88388.539063
2905.711914	85047.929688
2904.834961	81667.687500
2903.958008	78044.382813
2903.080078	74733.210938
2902.203125	70810.000000
2901.325195	68218.664063
2900.447266	65288.304688
2899.569336	62515.726563
2898.691406	60028.621094
2897.812500	57928.468750
2896.934570	55962.527344
2896.055664	54191.687500
2895.176758	53141.109375
2894.297852	52224.339844
2893.418945	50127.140625
2892.540039	49504.109375
2891.661133	48791.375000
2890.781250	48189.054688
2889.901367	47482.558594
2889.022461	46924.125000
2888.142578	46554.253906
2887.261719	45862.851563
2886.381836	45609.160156
2885.501953	44894.957031
2884.621094	44812.390625
2883.741211	44671.929688
2882.860352	44742.875000
2881.979492	44483.777344
2881.098633	44059.773438
2880.216797	43661.953125
2879.335938	43692.503906
2878.454102	43364.300781
2877.573242	42654.382813
2876.691406	42757.378906
2875.809570	42279.121094
2874.927734	42292.515625
2874.044922	41646.820313
2873.163086	41536.031250
2872.280273	40879.105469
2871.398438	41022.734375
2870.515625	40247.656250
2869.632813	40437.554688
2868.749023	39986.269531
2867.866211	39633.300781
2866.983398	39329.527344
2866.099609	39103.785156
2865.215820	38840.597656
2864.332031	38531.320313
2863.448242	38654.917969
2862.564453	38590.964844
2861.680664	38065.566406
2860.795898	37831.589844
2859.912109	37770.683594
2859.027344	37669.437500
2858.142578	37888.160156
2857.257813	37608.250000
2856.373047	37210.292969
2855.487305	37509.648438
2854.602539	37261.617188
2853.716797	37042.464844
2852.831055	37111.335938
2851.945313	36926.828125
2851.059570	37240.371094
2850.173828	37323.566406
2849.287109	37113.207031
2848.401367	36980.601563
2847.514648	36468.312500
2846.627930	37109.566406
2845.741211	37092.054688
2844.854492	37051.542969
2843.967773	36976.546875
2843.081055	36973.433594
2842.193359	37013.429688
2841.305664	36731.585938
2840.417969	36757.238281
2839.530273	36504.250000
2838.642578	36756.824219
2837.754883	36713.542969
2836.866211	36288.410156
2835.978516	36652.847656
2835.089844	36595.250000
2834.201172	36781.597656
2833.312500	36649.390625
2832.423828	36996.320313
2831.535156	36560.074219
2830.645508	37001.546875
2829.755859	37179.066406
2828.867188	36745.867188
2827.977539	37336.148438
2827.087891	36688.109375
2826.197266	37140.656250
2825.307617	37303.683594
2824.416992	37380.714844
2823.527344	37102.562500
2822.636719	37036.414063
2821.746094	37173.578125
2820.855469	37682.859375
2819.964844	37138.636719
2819.073242	37026.730469
2818.182617	37615.902344
2817.291016	37223.582031
2816.399414	37251.878906
2815.507813	37334.503906
2814.616211	36862.351563
2813.724609	37299.535156
2812.832031	37144.843750
2811.940430	36818.710938
2811.047852	36601.277344
2810.155273	36809.640625
2809.262695	36512.285156
2808.370117	36803.425781
2807.476563	36691.796875
2806.583984	36397.457031
2805.690430	36205.988281
2804.796875	36913.734375
2803.903320	36345.519531
2803.009766	36684.906250
2802.116211	36370.828125
2801.222656	36310.734375
2800.328125	36572.953125
2799.434570	36250.488281
2798.540039	36640.933594
2797.645508	36107.605469
2796.750977	36381.082031
2795.855469	36409.382813
2794.960938	36337.945313
2794.065430	36012.980469
2793.170898	36272.046875
2792.275391	36226.296875
2791.379883	35884.417969
2790.484375	36519.191406
2789.587891	36134.671875
2788.692383	36310.968750
2787.795898	35972.140625
2786.900391	35863.878906
2786.003906	35781.257813
2785.107422	35775.457031
2784.209961	36082.480469
2783.313477	35820.726563
2782.416992	35664.246094
2781.519531	36002.398438
2780.622070	36218.238281
2779.724609	35865.699219
2778.827148	35962.164063
2777.929688	35848.390625
2777.032227	35851.097656
2776.133789	35842.445313
2775.235352	35822.437500
2774.336914	35802.433594
2773.438477	36057.753906
2772.540039	36202.312500
2771.641602	35733.949219
2770.743164	36250.148438
2769.843750	36011.679688
2768.944336	36683.644531
2768.044922	36175.804688
2767.145508	36558.343750
2766.246094	36166.906250
2765.346680	36713.703125
2764.446289	36877.769531
2763.546875	36585.632813
2762.646484	36582.531250
2761.746094	36961.792969
2760.845703	37100.226563
2759.945313	36879.019531
2759.043945	37079.699219
2758.143555	36994.429688
2757.242188	37305.394531
2756.340820	36934.328125
2755.439453	36515.285156
2754.538086	36792.230469
2753.636719	36132.949219
2752.735352	36308.062500
2751.833008	35971.382813
2750.930664	35728.093750
2750.028320	35807.089844
2749.125977	35685.417969
2748.223633	35640.074219
2747.321289	35278.343750
2746.417969	35298.039063
2745.515625	35046.621094
2744.612305	35577.417969
2743.708984	34956.199219
2742.805664	35526.355469
2741.902344	34930.746094
2740.998047	34634.437500
2740.094727	34868.628906
2739.190430	34925.031250
2738.286133	34975.769531
2737.381836	34501.984375
2736.477539	34761.417969
2735.573242	34724.765625
2734.667969	34710.675781
2733.763672	34834.675781
2732.858398	34316.210938
2731.953125	34251.480469
2731.047852	34181.136719
2730.142578	34727.582031
2729.237305	34527.652344
2728.331055	34834.554688
2727.425781	34412.292969
2726.519531	34533.359375
2725.613281	33903.046875
2724.707031	34263.304688
2723.800781	34187.414063
2722.893555	34204.367188
2721.987305	34308.488281
2721.080078	34820.277344
2720.172852	34272.050781
2719.265625	34581.296875
2718.358398	34249.683594
2717.451172	34690.894531
2716.542969	34128.996094
2715.635742	34213.343750
2714.727539	34395.960938
2713.819336	34278.054688
2712.911133	34584.132813
2712.002930	34266.921875
2711.094727	34396.082031
2710.185547	34598.160156
2709.276367	34971.324219
2708.368164	34847.820313
2707.458984	34850.578125
2706.549805	34643.000000
2705.639648	34626.160156
2704.730469	34746.695313
2703.820313	34609.308594
2702.911133	34743.816406
2702.000977	34499.992188
2701.090820	34780.164063
2700.180664	34749.304688
2699.269531	35138.570313
2698.359375	34774.421875
2697.448242	34987.164063
2696.537109	34981.480469
2695.625977	35012.187500
2694.714844	35121.238281
2693.803711	35213.464844
2692.892578	35319.652344
2691.980469	35048.183594
2691.069336	34754.433594
2690.157227	35447.847656
2689.245117	35349.828125
2688.333008	35100.894531
2687.419922	35472.500000
2686.507813	34974.917969
2685.594727	34955.265625
2684.682617	35287.601563
2683.769531	35131.046875
2682.856445	35019.218750
2681.943359	35382.093750
2681.029297	35644.347656
2680.116211	35339.894531
2679.202148	35175.078125
2678.288086	34929.394531
2677.374023	35328.250000
2676.459961	35121.671875
2675.545898	35071.339844
2674.630859	34892.753906
2673.716797	35216.078125
2672.801758	34881.414063
2671.886719	34647.199219
2670.971680	34808.773438
2670.056641	35062.238281
2669.141602	34998.039063
2668.225586	35031.343750
2667.310547	35067.425781
2666.394531	34613.429688
2665.478516	34566.046875
2664.562500	34794.246094
2663.646484	34785.808594
2662.729492	35158.593750
2661.813477	34899.699219
2660.896484	35091.527344
2659.979492	35016.292969
2659.062500	35210.820313
2658.145508	34704.628906
2657.228516	34807.406250
2656.310547	35093.593750
2655.393555	34790.531250
2654.475586	34979.375000
2653.557617	34862.566406
2652.639648	34954.117188
2651.721680	35045.636719
2650.802734	35145.457031
2649.884766	34620.570313
2648.965820	34961.925781
2648.046875	35125.539063
2647.127930	34983.855469
2646.208984	35036.433594
2645.290039	34603.531250
2644.370117	34889.132813
2643.451172	35243.972656
2642.531250	35232.695313
2641.611328	34952.511719
2640.691406	34993.949219
2639.771484	35578.554688
2638.850586	35334.472656
2637.930664	35253.925781
2637.009766	35431.011719
2636.088867	35300.621094
2635.167969	35535.789063
2634.247070	35596.457031
2633.326172	35225.265625
2632.405273	35571.042969
2631.483398	35670.414063
2630.561523	35747.617188
2629.639648	35667.109375
2628.717773	35276.843750
2627.795898	35644.445313
2626.874023	35425.738281
2625.951172	35350.863281
2625.029297	35665.753906
2624.106445	35187.359375
2623.183594	35236.898438
2622.260742	35374.832031
2621.336914	35200.574219
2620.414063	35462.750000
2619.490234	35252.636719
2618.567383	34998.410156
2617.643555	35315.699219
2616.719727	35061.546875
2615.794922	34694.328125
2614.871094	35246.039063
2613.947266	35604.460938
2613.022461	34991.839844
2612.097656	35126.796875
2611.172852	35054.902344
2610.248047	35206.347656
2609.323242	35173.050781
2608.397461	35021.257813
2607.472656	35302.140625
2606.546875	35593.953125
2605.621094	35064.765625
2604.695313	35480.460938
2603.769531	35328.734375
2602.842773	35317.476563
2601.916992	35240.152344
2600.990234	35204.140625
2600.063477	35261.707031
2599.136719	35352.273438
2598.209961	35481.324219
2597.283203	35417.785156
2596.355469	35541.281250
2595.428711	35387.007813
2594.500977	35551.707031
2593.573242	35389.230469
2592.645508	35504.402344
2591.717773	35160.617188
2590.790039	35349.968750
2589.861328	35072.250000
2588.932617	36005.898438
2588.004883	35991.796875
2587.076172	35417.566406
2586.146484	35815.359375
2585.217773	35400.542969
2584.289063	35789.976563
2583.359375	36094.214844
2582.429688	35597.250000
2581.500000	35605.167969
2580.570313	35429.324219
2579.640625	35703.257813
2578.710938	35612.453125
2577.780273	36239.890625
2576.849609	35877.679688
2575.919922	35627.941406
2574.989258	35419.382813
2574.057617	35410.875000
2573.126953	35479.062500
2572.196289	35232.285156
2571.264648	35127.972656
2570.333008	35508.269531
2569.401367	35562.707031
2568.469727	35116.285156
2567.538086	35704.359375
2566.605469	35318.246094
2565.673828	35326.171875
2564.741211	35049.648438
2563.808594	35372.089844
2562.875977	35215.949219
2561.943359	35232.082031
2561.010742	34925.683594
2560.077148	35370.910156
2559.144531	35023.597656
2558.210938	35460.464844
2557.277344	35667.746094
2556.343750	34659.640625
2555.409180	35317.527344
2554.475586	34596.472656
2553.541016	35112.210938
2552.607422	35158.343750
2551.672852	35013.445313
2550.738281	35193.269531
2549.802734	35449.417969
2548.868164	34729.039063
2547.933594	35148.796875
2546.998047	34845.871094
2546.062500	35273.648438
2545.126953	35297.882813
2544.191406	35341.187500
2543.255859	35220.984375
2542.319336	35329.667969
2541.383789	35086.925781
2540.447266	35127.507813
2539.510742	35249.765625
2538.574219	35159.617188
2537.637695	35289.996094
2536.700195	34916.812500
2535.763672	35439.046875
2534.826172	35261.855469
2533.888672	35269.710938
2532.951172	35448.914063
2532.013672	34918.273438
2531.075195	35208.957031
2530.137695	34719.304688
2529.199219	34895.761719
2528.261719	34835.718750
2527.323242	35202.304688
2526.383789	35489.984375
2525.445313	35136.500000
2524.506836	34894.484375
2523.567383	35203.792969
2522.627930	35149.179688
2521.689453	35433.914063
2520.749023	35300.566406
2519.809570	35313.808594
2518.870117	35023.152344
2517.929688	35364.687500
2516.990234	35608.460938
2516.049805	35025.003906
2515.109375	34929.812500
2514.168945	34983.757813
2513.227539	35219.300781
2512.287109	35403.269531
2511.345703	34866.382813
2510.404297	35053.058594
2509.462891	35039.210938
2508.521484	34841.199219
2507.580078	35220.050781
2506.638672	35022.066406
2505.696289	34997.406250
2504.753906	35181.164063
2503.812500	35364.859375
2502.869141	35083.097656
2501.926758	35326.265625
2500.984375	35009.441406
2500.041016	35406.691406
2499.098633	35741.621094
2498.155273	35284.292969
2497.211914	35219.066406
2496.268555	35559.265625
2495.324219	35334.578125
2494.380859	35282.882813
2493.436523	35787.683594
2492.493164	35198.445313
2491.548828	35373.632813
2490.604492	35135.656250
2489.659180	35434.976563
2488.714844	35604.640625
2487.769531	35226.406250
2486.825195	35285.414063
2485.879883	35336.312500
2484.934570	34952.906250
2483.988281	35222.292969
2483.042969	35634.503906
2482.097656	35280.894531
2481.151367	35763.046875
2480.205078	35525.421875
2479.258789	35166.609375
2478.312500	35559.625000
2477.366211	35551.128906
2476.418945	35399.878906
2475.472656	35291.765625
2474.525391	35218.691406
2473.578125	35600.605469
2472.630859	35481.742188
2471.682617	35026.511719
2470.735352	35303.328125
2469.787109	36032.031250
2468.839844	35299.871094
2467.891602	35872.343750
2466.943359	35428.171875
2465.995117	35831.054688
2465.045898	35717.679688
2464.097656	35445.761719
2463.148438	35340.542969
2462.199219	35501.355469
2461.250000	35197.367188
2460.300781	35374.265625
2459.351563	35572.589844
2458.401367	35585.574219
2457.452148	35300.558594
2456.501953	35010.265625
2455.551758	35487.628906
2454.601563	35213.496094
2453.650391	35551.156250
2452.700195	34957.890625
2451.749023	35721.921875
2450.798828	35300.437500
2449.847656	35064.093750
2448.896484	35329.117188
2447.944336	35323.347656
2446.993164	35156.785156
2446.041016	35319.843750
2445.089844	35635.546875
2444.137695	35190.449219
2443.185547	35240.937500
2442.233398	35278.023438
2441.280273	35280.289063
2440.328125	35488.667969
2439.375000	34979.718750
2438.421875	35032.871094
2437.468750	35270.613281
2436.515625	35264.851563
2435.562500	35499.800781
2434.608398	35502.019531
2433.655273	35365.207031
2432.701172	35236.457031
2431.747070	35011.527344
2430.792969	35067.269531
2429.838867	35232.542969
2428.883789	35240.140625
2427.929688	35472.109375
2426.974609	35119.125000
2426.019531	35636.750000
2425.064453	35035.562500
2424.109375	35518.324219
2423.153320	35360.390625
2422.198242	35282.562500
2421.242188	35295.472656
2420.286133	35188.332031
2419.330078	35497.304688
2418.374023	35483.500000
2417.417969	35627.011719
2416.460938	35234.636719
2415.504883	35380.804688
2414.547852	35452.304688
2413.590820	35145.414063
2412.633789	35198.277344
2411.675781	35637.359375
2410.718750	35442.441406
2409.760742	35167.699219
2408.803711	35316.367188
2407.845703	35534.195313
2406.887695	35397.968750
2405.929688	35224.535156
2404.970703	35234.738281
2404.011719	35095.964844
2403.052734	35547.703125
2402.093750	35454.132813
2401.134766	34826.152344
2400.175781	35394.683594
2399.216797	35479.265625
2398.257813	35197.074219
2397.296875	35268.375000
2396.337891	35105.859375
2395.376953	35105.425781
2394.417969	35081.093750
2393.457031	35407.281250
2392.496094	35789.117188
2391.537109	35371.804688
2390.576172	35411.140625
2389.615234	35410.652344
2388.654297	35245.664063
2387.691406	35181.535156
2386.730469	34841.582031
2385.769531	35156.765625
2384.806641	35691.917969
2383.845703	35288.417969
2382.882813	35409.875000
2381.921875	35178.812500
2380.958984	35265.796875
2379.996094	35169.949219
2379.033203	35429.082031
2378.070313	35200.812500
2377.107422	35300.972656
2376.144531	35289.902344
2375.181641	35302.656250
2374.218750	35095.726563
2373.253906	35121.734375
2372.291016	34912.253906
2371.326172	35038.812500
2370.363281	35244.675781
2369.398438	35548.324219
2368.433594	35291.308594
2367.468750	35385.992188
2366.505859	34970.492188
2365.541016	35303.050781
2364.574219	35241.781250
2363.609375	35262.433594
2362.644531	35005.710938
2361.679688	35301.066406
2360.712891	35411.476563
2359.748047	35088.847656
2358.781250	34819.121094
2357.816406	35248.917969
2356.849609	35153.421875
2355.882813	35400.964844
2354.916016	35666.890625
2353.949219	35505.425781
2352.982422	34874.589844
2352.015625	35095.644531
2351.048828	35324.531250
2350.080078	35521.710938
2349.113281	35099.488281
2348.144531	35125.359375
2347.177734	35127.507813
2346.208984	35179.707031
2345.242188	35163.410156
2344.273438	35465.750000
2343.304688	35388.851563
2342.335938	34801.277344
2341.367188	35348.304688
2340.398438	35731.992188
2339.429688	35299.890625
2338.458984	35338.828125
2337.490234	35177.851563
2336.519531	35327.250000
2335.550781	35137.398438
2334.580078	35242.062500
2333.611328	35223.144531
2332.640625	35277.820313
2331.669922	35269.414063
2330.699219	35192.695313
2329.728516	35554.691406
2328.757813	35622.406250
2327.787109	35855.535156
2326.814453	35282.531250
2325.843750	35321.378906
2324.873047	35131.859375
2323.900391	35333.421875
2322.929688	34863.207031
2321.957031	35114.589844
2320.984375	35772.453125
2320.011719	35331.242188
2319.039063	35092.078125
2318.066406	35343.253906
2317.093750	35258.824219
2316.121094	34956.886719
2315.148438	34972.121094
2314.175781	35443.226563
2313.201172	35141.402344
2312.228516	35313.742188
2311.253906	35357.710938
2310.281250	35414.750000
2309.306641	35325.171875
2308.332031	35379.582031
2307.357422	35350.226563
2306.382813	35561.605469
2305.408203	35584.550781
2304.433594	35387.769531
2303.458984	35052.445313
2302.482422	35258.500000
2301.507813	35372.980469
2300.533203	35202.496094
2299.556641	35100.023438
2298.580078	35188.339844
2297.605469	35394.195313
2296.628906	35095.816406
2295.652344	35312.066406
2294.675781	35382.003906
2293.699219	35532.859375
2292.722656	35537.472656
2291.746094	35630.828125
2290.767578	35311.820313
2289.791016	35248.625000
2288.814453	35391.546875
2287.835938	35458.777344
2286.857422	35466.000000
2285.880859	35418.460938
2284.902344	35355.292969
2283.923828	35709.214844
2282.945313	35434.910156
2281.966797	35199.781250
2280.988281	35324.277344
2280.009766	35203.859375
2279.029297	35208.503906
2278.050781	35476.160156
2277.072266	35228.191406
2276.091797	35487.945313
2275.113281	35417.050781
2274.132813	35517.937500
2273.152344	35379.406250
2272.171875	35196.695313
2271.191406	35214.328125
2270.210938	35523.234375
2269.230469	35572.011719
2268.250000	35196.988281
2267.269531	35630.519531
2266.287109	35284.199219
2265.306641	35712.371094
2264.326172	35485.664063
2263.343750	35370.734375
2262.361328	34863.648438
2261.378906	35424.042969
2260.398438	35428.613281
2259.416016	35453.949219
2258.433594	35276.820313
2257.451172	35494.210938
2256.466797	34878.617188
2255.484375	35210.152344
2254.501953	35502.667969
2253.517578	35470.906250
2252.535156	35309.496094
2251.550781	35407.402344
2250.568359	34854.636719
2249.583984	35279.144531
2248.599609	35307.039063
2247.615234	35503.332031
2246.630859	35458.644531
2245.646484	35302.597656
2244.662109	35392.613281
2243.677734	34827.531250
2242.691406	35316.269531
2241.707031	35276.820313
2240.720703	35340.898438
2239.736328	35808.609375
2238.750000	35127.496094
2237.765625	35530.417969
2236.779297	35454.753906
2235.792969	35340.324219
2234.806641	35541.347656
2233.820313	35641.492188
2232.833984	35307.402344
2231.845703	34756.351563
2230.859375	35158.863281
2229.873047	35444.996094
2228.884766	35281.617188
2227.898438	34963.347656
2226.910156	35616.011719
2225.921875	35266.808594
2224.933594	35245.527344
2223.945313	35389.417969
2222.957031	35520.355469
2221.968750	35499.039063
2220.980469	35544.792969
2219.992188	35433.210938
2219.003906	35313.929688
2218.013672	35434.457031
2217.025391	35441.519531
2216.035156	35507.859375
2215.046875	35553.558594
2214.056641	35372.515625
2213.066406	35374.429688
2212.076172	35515.425781
2211.085938	34950.765625
2210.095703	35789.550781
2209.105469	35696.136719
2208.115234	35337.636719
2207.123047	35125.945313
2206.132813	34929.761719
2205.140625	35405.109375
2204.150391	35437.871094
2203.158203	35326.597656
2202.166016	35768.210938
2201.175781	35240.421875
2200.183594	35951.812500
2199.191406	35519.257813
2198.199219	35567.378906
2197.205078	35409.941406
2196.212891	35825.414063
2195.220703	35583.222656
2194.228516	35687.796875
2193.234375	35394.355469
2192.240234	35532.292969
2191.248047	35328.808594
2190.253906	35330.695313
2189.259766	35602.003906
2188.265625	35768.035156
2187.271484	35669.808594
2186.277344	35230.515625
2185.283203	35391.394531
2184.289063	35575.292969
2183.294922	35756.566406
2182.298828	35684.042969
2181.304688	35532.109375
2180.308594	35341.789063
2179.312500	35663.871094
2178.318359	35284.058594
2177.322266	35524.093750
2176.326172	35341.578125
2175.330078	35755.601563
2174.333984	35713.882813
2173.337891	35098.925781
2172.339844	35256.910156
2171.343750	35340.648438
2170.347656	35370.640625
2169.349609	35167.894531
2168.353516	35353.882813
2167.355469	35358.292969
2166.357422	35613.203125
2165.359375	35407.992188
2164.361328	35228.394531
2163.363281	36009.523438
2162.365234	35436.488281
2161.367188	35463.859375
2160.369141	35544.843750
2159.369141	35584.953125
2158.371094	35614.832031
2157.373047	35501.765625
2156.373047	35768.984375
2155.373047	35696.753906
2154.373047	35841.394531
2153.375000	35659.492188
2152.375000	35271.070313
2151.375000	35578.902344
2150.375000	35522.050781
2149.373047	35470.320313
2148.373047	35762.667969
2147.373047	35435.703125
2146.371094	35898.664063
2145.371094	35640.558594
2144.369141	35718.738281
2143.367188	35812.171875
2142.367188	35643.320313
2141.365234	35650.175781
2140.363281	35855.562500
2139.361328	35938.726563
2138.359375	35818.304688
2137.357422	35746.261719
2136.353516	35737.828125
2135.351563	35820.953125
2134.347656	35540.429688
2133.345703	35758.300781
2132.341797	35986.269531
2131.339844	35555.906250
2130.335938	35778.746094
2129.332031	35671.222656
2128.328125	35685.664063
2127.324219	36086.160156
2126.320313	35696.761719
2125.316406	35690.878906
2124.310547	35728.152344
2123.306641	35996.386719
2122.300781	35685.921875
2121.296875	36083.476563
2120.291016	35656.402344
2119.285156	35873.734375
2118.281250	35903.328125
2117.275391	35806.125000
2116.269531	35394.582031
2115.263672	35913.457031
2114.257813	35699.714844
2113.250000	36025.785156
2112.244141	35997.042969
2111.238281	35628.867188
2110.230469	35985.171875
2109.224609	35979.242188
2108.216797	35765.691406
2107.208984	35757.261719
2106.201172	35938.667969
2105.193359	35745.472656
2104.185547	35916.695313
2103.177734	35784.281250
2102.169922	35970.613281
2101.162109	36060.781250
2100.154297	35764.050781
2099.144531	35856.750000
2098.136719	36144.050781
2097.126953	35549.226563
2096.117188	35510.511719
2095.109375	36022.585938
2094.099609	36122.738281
2093.089844	35922.304688
2092.080078	35719.410156
2091.070313	35693.320313
2090.058594	35780.832031
2089.048828	35873.367188
2088.039063	36044.097656
2087.027344	35798.453125
2086.017578	35590.726563
2085.005859	35887.531250
2083.996094	35783.257813
2082.984375	35938.726563
2081.972656	35801.703125
2080.960938	35558.851563
2079.949219	36276.292969
2078.937500	36134.234375
2077.925781	35697.453125
2076.912109	35565.613281
2075.900391	35529.519531
2074.886719	35606.757813
2073.875000	35734.320313
2072.861328	35718.351563
2071.847656	35689.804688
2070.835938	36084.035156
2069.822266	35793.761719
2068.808594	35752.636719
2067.794922	35789.492188
2066.779297	35806.218750
2065.765625	35674.585938
2064.751953	36387.703125
2063.736328	35863.894531
2062.722656	35870.539063
2061.707031	35633.441406
2060.693359	36019.484375
2059.677734	35762.343750
2058.662109	36216.046875
2057.646484	36187.464844
2056.630859	35927.910156
2055.615234	35947.082031
2054.599609	35722.789063
2053.583984	35586.398438
2052.566406	36044.691406
2051.550781	35928.359375
2050.533203	35573.785156
2049.517578	36182.316406
2048.500000	35795.218750
2047.482422	35932.203125
2046.464844	35948.828125
2045.447266	35930.359375
2044.429688	35711.437500
2043.412109	35963.582031
2042.394531	36075.371094
2041.376953	35776.386719
2040.357422	35725.406250
2039.339844	35634.378906
2038.320313	35958.917969
2037.300781	35990.519531
2036.283203	35634.234375
2035.263672	35775.964844
2034.244141	36082.750000
2033.224609	35906.707031
2032.205078	35753.230469
2031.185547	35897.343750
2030.166016	35948.906250
2029.144531	36095.437500
2028.125000	35529.671875
2027.103516	35816.148438
2026.083984	35635.347656
2025.062500	35611.972656
2024.041016	35810.878906
2023.019531	35650.140625
2021.998047	35913.882813
2020.976563	35356.285156
2019.955078	35372.902344
2018.933594	35761.324219
2017.912109	35465.996094
2016.888672	35465.121094
2015.867188	35446.789063
2014.843750	36129.199219
2013.822266	35253.054688
2012.798828	35219.804688
2011.775391	35984.160156
2010.751953	35275.445313
2009.728516	35431.570313
2008.705078	35682.308594
2007.681641	35404.906250
2006.658203	35471.273438
2005.632813	35856.343750
2004.609375	35287.757813
2003.585938	35914.179688
2002.560547	35385.593750
2001.535156	35837.601563
2000.509766	35229.585938
1999.486328	35534.703125
1998.460938	35461.671875
1997.435547	35517.976563
1996.410156	35201.308594
1995.382813	35657.863281
1994.357422	35316.421875
1993.332031	35136.625000
1992.304688	35346.976563
1991.279297	35467.828125
1990.251953	35057.089844
1989.224609	35463.542969
1988.197266	35139.843750
1987.171875	35119.136719
1986.144531	35078.574219
1985.117188	35670.882813
1984.087891	35575.648438
1983.060547	35582.164063
1982.033203	35593.640625
1981.003906	35220.687500
1979.976563	35358.683594
1978.947266	35233.820313
1977.919922	35322.187500
1976.890625	35023.878906
1975.861328	35032.949219
1974.832031	35453.312500
1973.802734	35457.351563
1972.773438	35478.730469
1971.744141	35373.796875
1970.712891	35620.496094
1969.683594	35401.695313
1968.654297	35205.242188
1967.623047	35419.671875
1966.591797	35329.675781
1965.562500	35252.082031
1964.531250	35548.023438
1963.500000	35245.351563
1962.468750	35241.988281
1961.437500	34919.691406
1960.406250	35205.597656
1959.373047	35249.199219
1958.341797	35008.601563
1957.310547	35259.761719
1956.277344	35234.156250
1955.246094	35640.796875
1954.212891	35276.816406
1953.179688	35261.093750
1952.146484	35610.746094
1951.113281	35599.910156
1950.080078	35342.289063
1949.046875	35235.269531
1948.013672	35214.628906
1946.980469	35097.796875
1945.945313	35040.191406
1944.912109	35453.574219
1943.876953	35447.699219
1942.841797	34958.683594
1941.808594	35039.152344
1940.773438	34880.566406
1939.738281	35278.847656
1938.703125	35440.511719
1937.667969	35466.656250
1936.632813	35618.382813
1935.595703	35472.136719
1934.560547	35389.941406
1933.525391	35443.148438
1932.488281	35188.722656
1931.453125	35013.113281
1930.416016	35568.214844
1929.378906	34895.738281
1928.341797	35465.429688
1927.304688	35420.207031
1926.267578	35426.628906
1925.230469	35192.152344
1924.193359	34928.265625
1923.154297	35377.066406
1922.117188	35268.011719
1921.078125	35311.292969
1920.041016	34978.785156
1919.001953	35061.390625
1917.962891	35114.500000
1916.925781	35324.699219
1915.886719	35193.667969
1914.847656	34971.878906
1913.806641	35017.605469
1912.767578	35139.363281
1911.728516	34745.996094
1910.689453	35034.519531
1909.648438	34876.683594
1908.609375	35027.800781
1907.568359	34727.851563
1906.527344	35136.265625
1905.486328	34706.531250
1904.445313	35261.804688
1903.404297	34993.855469
1902.363281	35328.480469
1901.322266	34955.312500
1900.281250	35022.960938
1899.240234	35075.898438
1898.197266	34747.011719
1897.156250	34804.871094
1896.113281	34889.621094
1895.070313	34989.019531
1894.027344	35203.343750
1892.986328	34857.582031
1891.943359	35245.449219
1890.900391	35039.140625
1889.855469	34869.562500
1888.812500	34585.175781
1887.769531	34972.828125
1886.724609	34681.187500
1885.681641	35154.187500
1884.636719	34972.511719
1883.593750	34678.570313
1882.548828	34724.085938
1881.503906	34859.898438
1880.458984	34846.789063
1879.414063	34902.007813
1878.369141	34603.441406
1877.324219	34492.800781
1876.277344	34789.507813
1875.232422	34530.121094
1874.185547	35041.277344
1873.140625	34572.285156
1872.093750	34707.910156
1871.046875	34470.636719
1870.001953	34723.183594
1868.955078	34912.308594
1867.908203	34616.660156
1866.861328	34657.179688
1865.812500	34683.078125
1864.765625	34974.328125
1863.718750	34639.914063
1862.669922	34580.617188
1861.623047	34494.574219
1860.574219	34839.183594
1859.525391	34629.066406
1858.476563	34567.375000
1857.429688	34697.804688
1856.380859	34769.843750
1855.330078	34520.976563
1854.281250	34636.765625
1853.232422	34672.324219
1852.183594	34569.375000
1851.132813	34709.386719
1850.083984	34567.601563
1849.033203	34882.414063
1847.982422	34357.011719
1846.933594	34771.289063
1845.882813	34469.382813
1844.832031	34318.042969
1843.781250	34678.734375
1842.728516	34313.917969
1841.677734	34461.027344
1840.626953	34557.160156
1839.574219	34330.753906
1838.523438	34538.398438
1837.470703	34503.566406
1836.419922	34216.691406
1835.367188	34826.500000
1834.314453	34176.242188
1833.261719	34667.156250
1832.208984	34588.730469
1831.156250	34641.097656
1830.101563	34485.222656
1829.048828	34273.722656
1827.996094	34367.257813
1826.941406	34697.921875
1825.888672	34929.273438
1824.833984	34110.617188
1823.779297	34404.871094
1822.724609	34430.589844
1821.669922	34478.058594
1820.615234	34588.367188
1819.560547	34459.339844
1818.505859	34489.859375
1817.451172	34433.378906
1816.394531	34070.085938
1815.339844	34274.574219
1814.283203	34437.933594
1813.228516	34181.066406
1812.171875	34431.304688
1811.115234	34628.347656
1810.058594	34275.035156
1809.001953	34431.011719
1807.945313	34697.925781
1806.888672	34347.183594
1805.830078	34175.042969
1804.773438	34345.398438
1803.714844	34358.972656
1802.658203	34331.558594
1801.599609	34545.187500
1800.541016	34267.113281
1799.484375	34124.066406
1798.425781	34299.074219
1797.367188	34355.992188
1796.308594	34054.046875
1795.248047	34005.035156
1794.189453	34242.535156
1793.130859	33642.269531
1792.070313	34252.796875
1791.011719	34119.558594
1789.951172	34142.750000
1788.890625	34084.140625
1787.830078	33963.019531
1786.769531	34173.792969
1785.708984	33891.601563
1784.648438	33960.480469
1783.587891	34248.058594
1782.527344	34235.144531
1781.464844	34246.261719
1780.404297	34130.050781
1779.341797	34157.996094
1778.281250	34053.843750
1777.218750	33949.726563
1776.156250	34157.734375
1775.093750	34147.246094
1774.031250	34086.359375
1772.968750	34224.652344
1771.906250	33904.664063
1770.843750	33637.554688
1769.779297	34245.925781
1768.716797	34170.679688
1767.652344	33894.066406
1766.589844	33871.636719
1765.525391	33909.136719
1764.460938	34126.347656
1763.396484	34266.812500
1762.332031	33832.300781
1761.267578	34241.023438
1760.203125	34252.078125
1759.138672	34452.285156
1758.072266	34202.359375
1757.007813	33928.582031
1755.941406	34238.824219
1754.875000	34237.902344
1753.810547	34244.156250
1752.744141	33774.410156
1751.677734	34041.417969
1750.611328	34119.433594
1749.544922	33822.074219
1748.478516	33912.050781
1747.410156	34214.703125
1746.343750	33575.761719
1745.277344	34114.894531
1744.208984	33982.601563
1743.140625	33831.246094
1742.074219	33761.128906
1741.005859	34180.488281
1739.937500	33959.941406
1738.869141	34226.371094
1737.800781	33879.410156
1736.732422	34016.921875
1735.662109	33970.691406
1734.593750	34022.269531
1733.523438	34123.914063
1732.455078	33896.472656
1731.384766	33952.800781
1730.314453	33959.058594
1729.246094	33972.457031
1728.175781	33988.234375
1727.105469	33560.878906
1726.035156	34000.714844
1724.962891	33899.781250
1723.892578	33644.097656
1722.822266	34074.171875
1721.750000	34113.714844
1720.679688	33958.082031
1719.607422	34409.300781
1718.535156	33763.550781
1717.462891	34114.738281
1716.390625	33355.085938
1715.318359	33910.734375
1714.246094	33786.191406
1713.173828	33754.402344
1712.101563	33774.914063
1711.027344	33467.468750
1709.955078	33694.738281
1708.880859	33558.453125
1707.808594	33861.632813
1706.734375	33772.859375
1705.660156	33957.179688
1704.585938	33737.843750
1703.511719	33535.199219
1702.437500	33660.128906
1701.363281	33457.558594
1700.287109	33748.535156
1699.212891	33776.109375
1698.138672	33497.722656
1697.062500	33610.695313
1695.986328	33652.500000
1694.910156	33646.878906
1693.835938	33629.410156
1692.759766	33690.148438
1691.683594	33416.789063
1690.605469	33562.816406
1689.529297	33564.316406
1688.453125	33447.410156
1687.376953	33370.789063
1686.298828	33410.195313
1685.220703	33321.769531
1684.144531	33396.667969
1683.066406	33405.285156
1681.988281	33307.437500
1680.910156	33618.832031
1679.832031	33260.835938
1678.753906	33543.757813
1677.675781	33382.117188
1676.595703	33213.437500
1675.517578	33122.804688
1674.437500	33415.007813
1673.359375	33251.128906
1672.279297	33151.085938
1671.199219	33195.140625
1670.119141	33217.929688
1669.039063	33040.027344
1667.958984	33398.039063
1666.878906	33128.109375
1665.798828	33323.160156
1664.718750	33345.902344
1663.636719	33128.015625
1662.556641	33280.503906
1661.474609	33371.628906
1660.392578	33012.371094
1659.310547	33122.367188
1658.228516	32975.406250
1657.146484	33278.617188
1656.064453	33287.191406
1654.982422	33081.375000
1653.900391	32819.093750
1652.818359	32912.519531
1651.734375	33342.636719
1650.652344	33099.273438
1649.568359	32954.859375
1648.484375	33220.003906
1647.400391	33155.617188
1646.316406	33037.140625
1645.232422	32714.048828
1644.148438	33143.687500
1643.064453	32827.738281
1641.980469	32939.804688
1640.894531	32880.226563
1639.810547	32776.007813
1638.724609	32812.824219
1637.640625	32945.960938
1636.554688	32924.003906
1635.468750	32575.570313
1634.382813	33089.121094
1633.296875	32651.546875
1632.210938	33115.609375
1631.125000	32943.414063
1630.037109	32482.613281
1628.951172	32758.750000
1627.863281	32945.644531
1626.777344	32592.972656
1625.689453	32660.220703
1624.601563	32495.302734
1623.513672	32890.769531
1622.425781	32892.296875
1621.337891	33135.222656
1620.250000	32513.386719
1619.162109	32964.812500
1618.074219	32734.410156
1616.984375	33127.093750
1615.896484	32550.162109
1614.806641	33132.390625
1613.716797	32583.742188
1612.626953	32730.421875
1611.539063	32699.199219
1610.449219	32445.707031
1609.357422	32660.175781
1608.267578	32839.488281
1607.177734	32445.779297
1606.087891	32767.695313
1604.996094	32460.628906
1603.906250	32527.652344
1602.814453	32730.199219
1601.722656	32460.675781
1600.630859	32282.355469
1599.539063	32559.587891
1598.447266	32395.320313
1597.355469	32553.349609
1596.263672	32678.638672
1595.171875	32381.375000
1594.078125	32756.376953
1592.986328	32566.541016
1591.892578	32593.748047
1590.800781	32616.279297
1589.707031	32503.525391
1588.613281	32570.369141
1587.519531	32345.744141
1586.425781	32703.986328
1585.332031	32523.697266
1584.236328	32518.246094
1583.142578	32771.425781
1582.048828	32416.492188
1580.953125	32578.761719
1579.857422	32412.611328
1578.763672	32267.472656
1577.667969	32399.417969
1576.572266	32231.050781
1575.476563	32127.900391
1574.380859	32632.101563
1573.285156	32300.921875
1572.187500	32104.765625
1571.091797	32311.021484
1569.996094	32324.207031
1568.898438	32156.041016
1567.800781	32404.023438
1566.705078	32219.630859
1565.607422	32214.226563
1564.509766	32285.496094
1563.412109	32465.917969
1562.314453	31889.117188
1561.214844	31958.078125
1560.117188	32140.785156
1559.019531	32258.427734
1557.919922	32146.250000
1556.822266	32305.623047
1555.722656	31789.748047
1554.623047	32157.912109
1553.523438	32150.197266
1552.423828	32446.285156
1551.324219	31661.759766
1550.224609	32261.523438
1549.125000	31982.597656
1548.023438	32246.062500
1546.923828	32059.916016
1545.822266	31980.398438
1544.722656	31924.072266
1543.621094	31958.085938
1542.519531	32346.371094
1541.417969	32035.335938
1540.316406	31786.906250
1539.214844	32316.199219
1538.113281	31991.439453
1537.011719	32187.355469
1535.908203	31659.158203
1534.806641	31956.828125
1533.703125	32006.962891
1532.599609	31779.628906
1531.498047	31781.228516
1530.394531	31646.458984
1529.291016	31738.203125
1528.187500	31612.726563
1527.083984	31896.187500
1525.978516	32084.849609
1524.875000	32144.125000
1523.771484	31732.345703
1522.666016	31860.914063
1521.560547	31846.330078
1520.457031	31993.296875
1519.351563	31616.427734
1518.246094	31657.257813
1517.140625	31628.873047
1516.035156	32011.013672
1514.929688	31673.589844
1513.822266	31974.898438
1512.716797	31828.916016
1511.609375	31938.804688
1510.503906	31820.525391
1509.396484	31704.589844
1508.289063	31869.726563
1507.181641	32138.449219
1506.074219	32011.000000
1504.966797	32173.695313
1503.859375	31565.162109
1502.751953	31893.593750
1501.644531	31816.894531
1500.535156	31763.228516
1499.427734	32010.941406
1498.318359	31890.556641
1497.208984	31558.640625
1496.099609	31847.646484
1494.992188	31904.363281
1493.882813	32096.673828
1492.771484	32029.228516
1491.662109	32366.208984
1490.552734	32386.039063
1489.443359	32196.835938
1488.332031	32409.599609
1487.220703	32975.906250
1486.111328	33135.660156
1485.000000	34190.582031
1483.888672	35603.175781
1482.777344	37244.761719
1481.666016	38995.917969
1480.554688	41285.550781
1479.443359	43599.636719
1478.330078	45075.957031
1477.218750	46991.984375
1476.105469	48840.886719
1474.994141	49215.429688
1473.880859	47431.171875
1472.767578	45035.765625
1471.654297	42160.093750
1470.541016	40574.898438
1469.427734	38932.980469
1468.314453	37470.210938
1467.199219	36532.171875
1466.085938	35686.003906
1464.972656	34982.007813
1463.857422	34557.394531
1462.742188	33828.656250
1461.626953	33864.136719
1460.513672	33515.394531
1459.398438	33596.644531
1458.283203	33188.617188
1457.166016	33308.750000
1456.050781	33284.863281
1454.935547	33000.484375
1453.818359	33134.292969
1452.703125	33220.085938
1451.585938	33086.597656
1450.468750	33425.835938
1449.351563	33468.152344
1448.234375	33711.335938
1447.117188	33705.660156
1446.000000	34302.421875
1444.882813	33993.195313
1443.765625	34507.582031
1442.646484	34380.886719
1441.529297	34448.070313
1440.410156	34371.589844
1439.291016	34586.925781
1438.173828	34360.011719
1437.054688	34265.347656
1435.935547	34266.414063
1434.816406	33818.687500
1433.695313	33744.656250
1432.576172	33465.691406
1431.457031	33350.757813
1430.335938	33415.714844
1429.216797	33159.703125
1428.095703	33149.562500
1426.974609	32984.699219
1425.853516	33061.042969
1424.732422	32884.871094
1423.611328	32895.250000
1422.490234	32791.929688
1421.369141	33066.046875
1420.246094	32660.400391
1419.125000	32934.445313
1418.001953	32690.294922
1416.880859	32989.230469
1415.757813	32627.029297
1414.634766	32739.632813
1413.511719	32545.634766
1412.388672	32565.123047
1411.265625	32586.875000
1410.142578	32526.908203
1409.019531	32693.892578
1407.894531	32431.992188
1406.771484	32918.796875
1405.646484	32332.597656
1404.521484	32567.531250
1403.396484	32262.742188
1402.271484	32563.349609
1401.146484	32573.724609
1400.021484	32527.437500
1398.896484	32404.126953
1397.771484	32337.494141
1396.644531	32601.587891
1395.519531	32623.265625
1394.392578	32610.968750
1393.267578	33058.257813
1392.140625	32916.867188
1391.013672	33445.429688
1389.886719	34053.007813
1388.759766	33956.765625
1387.632813	34512.023438
1386.505859	34433.828125
1385.376953	34156.664063
1384.250000	33838.894531
1383.121094	33679.468750
1381.992188	33384.488281
1380.865234	32956.281250
1379.736328	32657.001953
1378.607422	32753.144531
1377.478516	32302.669922
1376.349609	31942.675781
1375.218750	31950.832031
1374.089844	31785.158203
1372.960938	31495.400391
1371.830078	31377.248047
1370.699219	31547.943359
1369.570313	31477.195313
1368.439453	31663.605469
1367.308594	31622.175781
1366.177734	31957.312500
1365.046875	31178.650391
1363.916016	31446.123047
1362.783203	31600.824219
1361.652344	31755.470703
1360.519531	31851.488281
1359.388672	32127.673828
1358.255859	32291.158203
1357.123047	32416.306641
1355.990234	32755.292969
1354.857422	32887.070313
1353.724609	32600.189453
1352.591797	32716.195313
1351.458984	32577.927734
1350.324219	32520.685547
1349.191406	32659.132813
1348.056641	32532.185547
1346.921875	32636.857422
1345.789063	32858.386719
1344.654297	33590.039063
1343.519531	33880.996094
1342.384766	34113.433594
1341.248047	34184.046875
1340.113281	34068.214844
1338.978516	34343.164063
1337.841797	34312.664063
1336.707031	34259.718750
1335.570313	33977.851563
1334.433594	34483.777344
1333.296875	33941.683594
1332.160156	33583.734375
1331.023438	33777.683594
1329.886719	33619.476563
1328.750000	33120.492188
1327.613281	33724.687500
1326.474609	33819.851563
1325.337891	34697.140625
1324.199219	35524.832031
1323.060547	36016.187500
1321.921875	35810.738281
1320.783203	35876.347656
1319.644531	35111.179688
1318.505859	34429.109375
1317.367188	33268.234375
1316.226563	33054.464844
1315.087891	32639.369141
1313.947266	32792.699219
1312.808594	33192.042969
1311.667969	33381.011719
1310.527344	33534.136719
1309.386719	34662.027344
1308.246094	35626.347656
1307.105469	36939.011719
1305.964844	38776.382813
1304.822266	40543.867188
1303.681641	42254.906250
1302.541016	43721.902344
1301.398438	44527.382813
1300.255859	44555.574219
1299.113281	43914.023438
1297.970703	42522.722656
1296.828125	41553.675781
1295.685547	40263.652344
1294.542969	39136.917969
1293.400391	38229.156250
1292.255859	38129.019531
1291.113281	38120.335938
1289.968750	37659.082031
1288.824219	37601.441406
1287.681641	37008.941406
1286.537109	36621.640625
1285.392578	35786.664063
1284.246094	35350.691406
1283.101563	34522.894531
1281.957031	33463.789063
1280.810547	33411.367188
1279.666016	33325.574219
1278.519531	32885.929688
1277.375000	32486.492188
1276.228516	32752.425781
1275.082031	32268.609375
1273.935547	32229.783203
1272.789063	31984.158203
1271.642578	32901.437500
1270.494141	33516.082031
1269.347656	34321.660156
1268.199219	35598.078125
1267.052734	36536.339844
1265.904297	37923.023438
1264.755859	38780.609375
1263.607422	39018.320313
1262.458984	38738.601563
1261.310547	38321.339844
1260.162109	37697.796875
1259.013672	36872.511719
1257.863281	35668.082031
1256.714844	34326.511719
1255.564453	34141.031250
1254.414063	33496.539063
1253.265625	33049.605469
1252.115234	33061.742188
1250.964844	32927.574219
1249.812500	32888.750000
1248.662109	33623.265625
1247.511719	34297.714844
1246.361328	35091.550781
1245.208984	35812.027344
1244.056641	37052.632813
1242.906250	37360.734375
1241.753906	37960.921875
1240.601563	37983.257813
1239.449219	37175.765625
1238.296875	36308.812500
1237.144531	35159.003906
1235.990234	33978.617188
1234.837891	33117.066406
1233.683594	32355.296875
1232.531250	31321.882813
1231.376953	31462.445313
1230.222656	31119.001953
1229.068359	30537.050781
1227.914063	30589.306641
1226.759766	30531.107422
1225.605469	30601.011719
1224.451172	30322.031250
1223.294922	30526.607422
1222.140625	30344.851563
1220.984375	30388.251953
1219.828125	30758.195313
1218.673828	30719.884766
1217.517578	30785.253906
1216.361328	30881.474609
1215.205078	30909.308594
1214.046875	31300.888672
1212.890625	31527.019531
1211.734375	31612.025391
1210.576172	31633.101563
1209.419922	31669.589844
1208.261719	31664.212891
1207.103516	32180.794922
1205.945313	32208.361328
1204.787109	31848.435547
1203.628906	31752.777344
1202.470703	31815.611328
1201.310547	31775.000000
1200.152344	31083.169922
1198.992188	30923.910156
1197.833984	30729.513672
1196.673828	30722.095703
1195.513672	30721.273438
1194.353516	30272.011719
1193.193359	30227.306641
1192.033203	30510.044922
1190.873047	30641.083984
1189.712891	30605.125000
1188.550781	30400.054688
1187.390625	30746.250000
1186.228516	30863.982422
1185.066406	30887.275391
1183.904297	30939.095703
1182.742188	30874.585938
1181.580078	31216.013672
1180.417969	31278.714844
1179.255859	32076.181641
1178.093750	32522.492188
1176.929688	32734.037109
1175.767578	32984.968750
1174.603516	33301.574219
1173.439453	33661.898438
1172.275391	33689.042969
1171.113281	33766.566406
1169.947266	33598.738281
1168.783203	33448.480469
1167.619141	32961.070313
1166.455078	33163.449219
1165.289063	32525.210938
1164.125000	32257.052734
1162.958984	32120.277344
1161.792969	32386.103516
1160.626953	32190.289063
1159.460938	32217.621094
1158.294922	32428.625000
1157.128906	32761.988281
1155.962891	32983.753906
1154.796875	32759.587891
1153.628906	32306.048828
1152.462891	31516.199219
1151.294922	30980.013672
1150.126953	30944.166016
1148.958984	30364.583984
1147.791016	30518.802734
1146.623047	29915.474609
1145.455078	30010.785156
1144.287109	29678.343750
1143.117188	29751.841797
1141.949219	29421.736328
1140.779297	29401.462891
1139.609375	29043.177734
1138.441406	28706.818359
1137.271484	28682.312500
1136.101563	28507.419922
1134.931641	28491.669922
1133.759766	28282.005859
1132.589844	28124.695313
1131.419922	28156.935547
1130.248047	28123.830078
1129.078125	28375.976563
1127.906250	28166.503906
1126.734375	28092.056641
1125.562500	28465.949219
1124.390625	28354.480469
1123.218750	28726.023438
1122.046875	29306.255859
1120.875000	29449.154297
1119.701172	29911.644531
1118.529297	30415.283203
1117.355469	31140.466797
1116.181641	32134.896484
1115.007813	33200.691406
1113.833984	34077.109375
1112.660156	34423.207031
1111.486328	35164.457031
1110.312500	35353.902344
1109.138672	35886.312500
1107.962891	35947.492188
1106.789063	36579.457031
1105.613281	37182.996094
1104.437500	38024.988281
1103.261719	39417.683594
1102.085938	40484.566406
1100.910156	40902.699219
1099.734375	41446.441406
1098.558594	40765.195313
1097.380859	39726.558594
1096.205078	38254.863281
1095.027344	36294.000000
1093.851563	34821.222656
1092.673828	33017.558594
1091.496094	32336.273438
1090.318359	31685.531250
1089.140625	31885.789063
1087.962891	31527.544922
1086.783203	31801.337891
1085.605469	32663.568359
1084.427734	33802.414063
1083.248047	35529.199219
1082.068359	37484.636719
1080.888672	39556.164063
1079.708984	42325.269531
1078.529297	45106.398438
1077.349609	47246.882813
1076.169922	49993.808594
1074.990234	53521.863281
1073.808594	54845.476563
1072.628906	54972.179688
1071.447266	54094.761719
1070.265625	52803.128906
1069.085938	50821.195313
1067.904297	48950.003906
1066.722656	46578.832031
1065.539063	43641.054688
1064.357422	41155.113281
1063.175781	38249.457031
1061.992188	36274.179688
1060.810547	35129.628906
1059.626953	34737.777344
1058.443359	34141.308594
1057.259766	34687.132813
1056.076172	35030.242188
1054.892578	34197.070313
1053.708984	33622.636719
1052.525391	32899.812500
1051.339844	31529.166016
1050.156250	30705.765625
1048.970703	29740.593750
1047.787109	28775.750000
1046.601563	28583.650391
1045.416016	28374.404297
1044.230469	28029.726563
1043.044922	27932.470703
1041.859375	27706.240234
1040.671875	27471.486328
1039.486328	27666.685547
1038.298828	27954.224609
1037.113281	28183.652344
1035.925781	28617.083984
1034.738281	28895.718750
1033.550781	29704.699219
1032.363281	30021.699219
1031.175781	31004.099609
1029.988281	31471.017578
1028.798828	31706.000000
1027.611328	32719.791016
1026.421875	33677.453125
1025.232422	34285.160156
1024.044922	36243.757813
1022.855469	36741.457031
1021.666016	37043.894531
1020.476563	37093.296875
1019.287109	35584.617188
1018.095703	33716.468750
1016.906250	32110.332031
1015.714844	30423.345703
1014.525391	29086.025391
1013.333984	28143.162109
1012.142578	27200.619141
1010.951172	26977.630859
1009.759766	26801.802734
1008.568359	26290.078125
1007.376953	26120.843750
1006.183594	25938.830078
1004.992188	25673.468750
1003.798828	25699.015625
1002.607422	25897.732422
1001.414063	25525.626953
1000.220703	25508.437500
999.027344	25254.056641
997.833984	25348.017578
996.640625	25162.107422
995.447266	25313.716797
994.251953	24933.546875
993.058594	25226.058594
991.863281	25125.679688
990.667969	25023.201172
989.474609	24861.003906
988.279297	25119.187500
987.083984	25087.156250
985.888672	24867.441406
984.691406	24786.414063
983.496094	24686.224609
982.300781	24786.458984
981.103516	24660.724609
979.906250	24929.281250
978.710938	24912.230469
977.513672	24778.015625
976.316406	24999.550781
975.119141	24880.273438
973.921875	24918.597656
972.722656	24818.533203
971.525391	24812.154297
970.326172	25035.619141
969.128906	25086.654297
967.929688	25261.064453
966.730469	25252.484375
965.531250	25056.755859
964.332031	25250.214844
963.132813	25088.568359
961.933594	24831.324219
960.734375	24848.324219
959.533203	24963.060547
958.333984	25183.984375
957.132813	24756.964844
955.931641	24784.580078
954.730469	25264.474609
953.529297	25616.820313
952.328125	25901.117188
951.126953	27008.781250
949.925781	28164.869141
948.724609	29307.832031
947.521484	30579.794922
946.318359	30625.457031
945.117188	30408.156250
943.914063	29364.072266
942.710938	27902.746094
941.507813	26751.357422
940.304688	26263.625000
939.101563	25462.494141
937.896484	24805.683594
936.693359	24695.533203
935.488281	24593.888672
934.285156	24456.285156
933.080078	24189.599609
931.875000	24346.308594
930.669922	24198.234375
929.464844	23974.042969
928.259766	23976.279297
927.054688	24405.755859
925.847656	23855.976563
924.642578	23900.515625
923.435547	24213.513672
922.228516	24228.382813
921.023438	24181.962891
919.816406	24059.492188
918.609375	24175.779297
917.402344	24446.214844
916.193359	24587.734375
914.986328	24902.343750
913.777344	25655.949219
912.570313	25448.919922
911.361328	25588.056641
910.152344	25193.318359
908.945313	25359.875000
907.736328	24501.269531
906.527344	24385.292969
905.316406	24115.429688
904.107422	24054.371094
902.898438	23904.802734
901.687500	23729.996094
900.478516	23909.240234
899.267578	23532.242188
898.056641	23486.076172
896.845703	23578.919922
895.634766	23579.083984
894.423828	23581.351563
893.212891	23623.611328
892.000000	23236.523438
890.789063	23529.226563
889.576172	23588.302734
888.363281	23556.906250
887.152344	23304.693359
885.939453	23611.898438
884.726563	23654.095703
883.513672	23721.503906
882.298828	23751.054688
881.085938	23742.773438
879.873047	23833.238281
878.658203	23986.687500
877.443359	24146.384766
876.230469	24835.195313
875.015625	25641.339844
873.800781	26275.076172
872.585938	27374.525391
871.371094	29147.191406
870.154297	31009.464844
868.939453	32277.445313
867.722656	32448.076172
866.507813	31970.677734
865.291016	30700.916016
864.074219	28813.191406
862.857422	27148.281250
861.640625	25835.994141
860.423828	25202.996094
859.207031	24578.595703
857.990234	24222.500000
856.771484	24262.310547
855.554688	23843.578125
854.335938	23718.062500
853.117188	23487.937500
851.898438	23174.183594
850.679688	23245.521484
849.460938	23413.064453
848.242188	23170.597656
847.023438	22995.130859
845.802734	23097.810547
844.583984	22951.683594
843.363281	23173.470703
842.142578	22916.621094
840.921875	23065.207031
839.701172	22846.064453
838.480469	22810.804688
837.259766	22859.087891
836.039063	22861.419922
834.816406	23011.970703
833.595703	22663.611328
832.373047	22718.144531
831.152344	22753.880859
829.929688	22852.187500
828.707031	22937.945313
827.484375	22825.552734
826.261719	22934.220703
825.037109	23034.511719
823.814453	22920.074219
822.591797	22864.027344
821.367188	22774.660156
820.142578	22799.906250
818.917969	22798.064453
817.695313	22619.199219
816.470703	23085.894531
815.244141	23113.146484
814.019531	22886.443359
812.794922	23009.453125
811.568359	23007.572266
810.343750	23018.173828
809.117188	23380.306641
807.890625	23324.287109
806.666016	23521.968750
805.439453	23399.414063
804.210938	23559.597656
802.984375	24050.175781
801.757813	23802.912109
800.531250	24471.951172
799.302734	24417.882813
798.074219	25234.041016
796.847656	25543.248047
795.619141	26097.333984
794.390625	26620.089844
793.162109	27877.373047
791.933594	29044.994141
790.703125	30492.298828
789.474609	32459.771484
788.244141	35312.167969
787.015625	38820.929688
785.785156	43174.386719
784.554688	47847.648438
783.324219	52788.734375
782.093750	56480.628906
780.863281	57792.746094
779.632813	55918.421875
778.400391	51731.257813
777.169922	46336.191406
775.937500	41398.480469
774.707031	36746.070313
773.474609	33713.792969
772.242188	30866.732422
771.009766	29038.609375
769.777344	27705.521484
768.544922	26819.648438
767.310547	25832.748047
766.078125	25456.126953
764.843750	24856.373047
763.609375	24515.185547
762.376953	23969.529297
761.142578	23771.173828
759.908203	23413.820313
758.673828	23279.658203
757.437500	23391.285156
756.203125	23166.322266
754.968750	23040.527344
753.732422	22869.365234
752.496094	22820.017578
751.261719	23038.916016
750.025391	22812.140625
748.789063	22973.210938
747.552734	23113.603516
746.316406	23157.037109
745.078125	23398.361328
743.841797	23256.222656
742.603516	23860.148438
741.367188	24721.423828
740.128906	25506.175781
738.890625	26494.572266
737.652344	27775.058594
736.414063	28523.871094
735.175781	28595.117188
733.935547	27958.271484
732.697266	27012.949219
731.458984	25928.035156
730.218750	25137.683594
728.978516	24691.105469
727.738281	24193.267578
726.498047	24226.101563
725.257813	24112.957031
724.017578	24055.347656
722.777344	23872.394531
721.535156	23934.023438
720.294922	24036.718750
719.052734	23983.267578
717.812500	23938.048828
716.570313	23915.431641
715.328125	23724.474609
714.085938	23847.638672
712.843750	23679.333984
711.599609	23755.267578
710.357422	23566.519531
709.113281	23687.570313
707.871094	23451.726563
706.626953	23636.320313
705.382813	23665.037109
704.138672	23826.980469
702.894531	23728.585938
701.650391	23972.423828
700.406250	24291.980469
699.160156	24236.570313
697.916016	24760.771484
696.669922	25034.974609
695.425781	26042.025391
694.179688	26209.468750
692.933594	27312.156250
691.687500	27904.943359
690.441406	28683.701172
689.193359	30171.996094
687.947266	31712.953125
686.701172	33519.203125
685.453125	35212.382813
684.205078	37174.800781
682.957031	37861.214844
681.710938	38287.871094
680.462891	37850.156250
679.212891	35864.199219
677.964844	33660.398438
676.716797	31473.691406
675.466797	29265.283203
674.218750	27286.265625
672.968750	25981.451172
671.718750	25207.644531
670.468750	24005.650391
669.218750	23397.683594
667.968750	22981.642578
666.718750	22814.529297
665.466797	22620.966797
664.216797	22256.236328
662.964844	22174.933594
661.714844	22101.810547
660.462891	21965.548828
659.210938	22033.042969
657.958984	21446.724609
656.707031	21697.556641
655.455078	21502.412109
654.201172	21480.367188
652.949219	21354.527344
651.695313	21312.164063
650.441406	21377.648438
649.189453	21229.511719
647.935547	21221.767578
646.681641	20974.062500
645.427734	20903.333984
644.171875	20657.802734
642.917969	20678.613281
641.662109	20618.128906
640.408203	20486.554688
639.152344	20411.902344
637.896484	20316.966797
636.640625	20384.521484
635.384766	20334.289063
634.128906	20468.806641
632.873047	20122.242188
631.617188	20281.099609
630.359375	20052.367188
629.103516	20199.009766
627.845703	19854.757813
626.587891	20252.843750
625.330078	20074.960938
624.072266	19931.601563
622.814453	20061.917969
621.556641	19910.503906
620.296875	19781.427734
619.039063	20031.224609
617.779297	20191.812500
616.521484	20368.544922
615.261719	20302.244141
614.001953	20695.505859
612.742188	20691.916016
611.482422	21014.142578
610.220703	21125.828125
608.960938	21152.507813
607.699219	21134.677734
606.439453	21310.996094
605.177734	21460.966797
603.916016	21477.457031
602.654297	22094.253906
601.392578	22609.789063
600.130859	22882.679688
598.869141	23266.585938
597.607422	23294.865234
596.343750	22719.304688
595.080078	22612.384766
593.818359	22275.357422
592.554688	21702.291016
591.291016	21466.441406
590.027344	20633.423828
588.763672	20438.187500
587.498047	20184.527344
586.234375	19967.251953
584.970703	19826.673828
583.705078	19494.625000
582.439453	19384.410156
581.173828	19429.410156
579.908203	19234.615234
578.642578	19209.115234
577.376953	19288.361328
576.111328	19131.955078
574.843750	19203.132813
573.578125	18960.226563
572.310547	19152.177734
571.042969	19066.337891
569.777344	19099.244141
568.509766	18788.121094
567.242188	19150.939453
565.972656	18765.503906
564.705078	18832.617188
563.437500	19040.435547
562.167969	19119.539063
560.898438	19116.214844
559.630859	18664.808594
558.361328	19433.019531
557.091797	19367.373047
555.822266	19532.703125
554.550781	20103.580078
553.281250	20862.972656
552.011719	22041.615234
550.740234	22968.984375
549.468750	23671.296875
548.199219	24453.613281
546.927734	24649.945313
545.656250	24523.322266
544.384766	23364.087891
543.111328	22341.582031
541.839844	20996.712891
540.568359	20335.710938
539.294922	19853.275391
538.021484	19140.613281
536.750000	19035.126953
535.476563	18785.480469
534.203125	18475.849609
532.927734	18458.621094
531.654297	18197.193359
530.380859	18576.279297
529.105469	18677.097656
527.832031	18461.781250
526.556641	18322.548828
525.281250	18299.361328
524.005859	18346.166016
522.730469	18290.992188
521.455078	18289.806641
520.179688	18564.419922
518.902344	18661.097656
517.626953	18639.869141
516.349609	18544.738281
515.074219	18695.289063
513.796875	18923.664063
512.519531	18942.330078
511.242188	19358.212891
509.964844	19907.666016
508.685547	21031.603516
507.408203	22643.941406
506.128906	25484.458984
504.851563	29903.523438
503.572266	34871.398438
502.292969	38830.734375
501.013672	40550.187500
499.734375	38641.824219
498.455078	34520.312500
497.173828	29639.183594
495.894531	25873.246094
494.613281	23618.242188
493.333984	22998.833984
492.052734	22088.968750
490.771484	21882.083984
489.490234	22349.947266
488.208984	23122.095703
486.927734	23927.794922
485.644531	24564.132813
484.363281	25454.816406
483.080078	25657.179688
481.796875	25129.832031
480.515625	24252.818359
479.232422	22652.687500
477.949219	21859.867188
476.666016	20399.779297
475.380859	19762.564453
474.097656	19169.263672
472.812500	18838.281250
471.529297	18551.091797
470.244141	18418.832031
468.958984	18181.429688
467.673828	18092.933594
466.388672	18058.033203
465.103516	18029.095703
463.818359	17887.123047
462.531250	17800.718750
461.246094	18122.755859
459.958984	17853.974609
458.671875	17704.201172
457.384766	17818.021484
456.097656	17729.720703
454.810547	17627.585938
453.523438	17887.916016
452.236328	17762.023438
450.947266	17766.843750
449.660156	17777.599609
448.371094	17572.625000
447.082031	18082.060547
445.792969	18015.593750
444.503906	18172.673828
443.214844	18147.746094
441.925781	18045.708984
440.634766	18426.105469
439.345703	19033.689453
438.054688	19621.296875
436.765625	20163.251953
435.474609	21475.525391
434.183594	22735.982422
432.892578	24294.220703
431.601563	25409.595703
430.308594	25863.191406
429.017578	25363.214844
427.724609	24158.835938
426.433594	22285.943359
425.140625	20524.185547
423.847656	19475.140625
422.554688	18434.349609
421.261719	18093.937500
419.968750	17802.931641
418.673828	17240.003906
417.380859	17035.964844
416.085938	16642.830078
414.792969	16639.921875
413.498047	16388.816406
412.203125	16293.386719
410.908203	16322.044922
409.613281	16399.912109
408.316406	16046.664063
407.021484	16220.986328
405.726563	16005.633789
404.429688	16158.260742
403.132813	16078.719727
401.835938	16028.707031
400.539063	15929.552734
399.242188	16052.592773
397.945313	15906.290039
396.648438	15980.157227
395.349609	15993.082031
394.052734	16381.250000
392.753906	15838.200195
391.455078	16240.005859
390.158203	16001.531250
388.857422	15998.731445
387.558594	16078.375977
386.259766	16095.188477
384.960938	15935.392578
383.660156	15895.328125
382.361328	15949.432617
381.060547	15732.869141
379.759766	15806.589844
378.458984	16017.520508
377.158203	16008.836914
375.857422	16051.111328
374.556641	15975.800781
373.253906	16135.614258
371.953125	16215.059570
370.650391	16243.556641
369.347656	16481.562500
368.044922	16762.554688
366.742188	16884.896484
365.439453	17471.027344
364.136719	18107.828125
362.833984	18859.832031
361.529297	20392.046875
360.226563	22146.675781
358.921875	24860.783203
357.617188	28490.855469
356.312500	32313.171875
355.007813	35819.496094
353.703125	38505.855469
352.398438	41470.648438
351.091797	43903.093750
349.787109	45744.882813
348.480469	45061.253906
347.175781	41996.046875
345.869141	36714.484375
344.562500	31745.076172
343.255859	27825.246094
341.947266	25167.093750
340.640625	23153.570313
339.333984	22316.753906
338.025391	21720.068359
336.716797	20788.265625
335.410156	20287.568359
334.101563	19716.886719
332.792969	19101.585938
331.482422	18601.445313
330.173828	18329.378906
328.865234	17547.158203
327.554688	17248.109375
326.246094	16692.183594
324.935547	16554.947266
323.625000	16135.567383
322.314453	15899.239258
321.003906	15894.505859
319.693359	15527.978516
318.380859	15422.180664
317.070313	15419.475586
315.757813	15408.994141
314.447266	15347.977539
313.134766	15283.095703
311.822266	15367.852539
310.509766	15050.431641
309.197266	15141.026367
307.884766	15142.253906
306.570313	15114.353516
305.257813	14989.394531
303.943359	15118.753906
302.628906	15141.330078
301.314453	15245.391602
300.000000	15392.096680
298.685547	15691.984375
297.371094	16030.553711
296.056641	16436.867188
294.740234	16992.314453
293.425781	17154.087891
292.109375	17459.212891
290.792969	17830.111328
289.476563	17950.966797
288.160156	18218.988281
286.843750	18792.898438
285.527344	18489.476563
284.208984	18577.218750
282.892578	18573.955078
281.574219	18669.390625
280.255859	18464.878906
278.939453	17910.283203
277.621094	17301.720703
276.300781	16749.455078
274.982422	16317.263672
273.664063	15740.231445
272.343750	15540.312500
271.025391	15185.860352
269.705078	14989.971680
268.384766	15141.885742
267.064453	14787.688477
265.744141	14653.769531
264.423828	14631.885742
263.103516	14312.711914
261.781250	14427.935547
260.460938	13952.593750
259.138672	14148.876953
257.816406	13965.050781
256.494141	13779.358398
255.171875	13825.147461
253.849609	13693.532227
252.527344	13774.018555
251.205078	13711.845703
249.880859	13697.872070
248.558594	13710.876953
247.234375	13671.863281
245.910156	13577.005859
244.585938	13526.473633
243.261719	13676.202148
241.937500	13860.528320
240.611328	13958.175781
239.287109	13846.030273
237.960938	14143.747070
236.636719	14410.578125
235.310547	14554.219727
233.984375	14784.346680
232.658203	15060.537109
231.332031	15315.483398
230.003906	15718.335938
228.677734	15344.682617
227.351563	15286.262695
226.023438	15006.946289
224.695313	14714.283203
223.367188	14442.845703
222.039063	13948.783203
220.710938	13698.691406
219.382813	13640.619141
218.054688	13511.564453
216.724609	13476.568359
215.394531	13428.155273
214.066406	13439.216797
212.736328	13691.894531
211.406250	13497.753906
210.076172	13683.238281
208.746094	13688.494141
207.414063	13684.166992
206.083984	13875.266602
204.751953	13604.637695
203.421875	13922.090820
202.089844	13789.421875
200.757813	13806.138672
199.425781	13658.222656
198.093750	13294.084961
196.759766	13220.939453
195.427734	13166.952148
194.095703	13220.105469
192.761719	13041.819336
191.427734	13192.499023
190.093750	13400.482422
188.759766	13415.324219
187.425781	14234.784180
186.091797	14658.402344
184.757813	15257.640625
183.421875	15896.782227
182.085938	16604.453125
180.751953	16735.191406
179.416016	16955.617188
178.080078	16295.978516
176.744141	16172.867188
175.408203	15712.048828
174.070313	15522.307617
172.734375	14869.106445
171.396484	14788.289063
170.060547	14501.559570
168.722656	14102.448242
167.384766	13735.880859
166.046875	13337.042969
164.708984	13126.991211
163.369141	13130.389648
162.031250	12872.826172
160.691406	12725.813477
159.353516	12580.755859
158.013672	12567.112305
156.673828	12621.999023
155.333984	12336.202148
153.994141	12453.901367
152.654297	11947.546875
151.312500	11707.670898
149.972656	11836.828125
148.630859	11943.122070
147.289063	11688.163086
145.947266	11613.869141
144.605469	11712.542969
143.263672	11932.789063
141.921875	12152.957031
140.580078	12091.927734
139.236328	12340.476563
137.894531	12497.793945
136.550781	12246.889648
135.207031	12146.025391
133.863281	11999.648438
132.519531	11612.347656
131.175781	11547.691406
129.832031	11111.291016
128.486328	11042.952148
127.142578	10688.326172
125.796875	10532.879883
124.451172	10098.860352
123.105469	9869.664063
121.759766	9926.657227
120.414063	9707.043945
119.068359	9415.532227
117.720703	9673.312500
116.375000	9576.931641
115.027344	9463.546875
113.679688	9001.934570
112.332031	8245.267578
110.984375	7246.681641
109.636719	6420.597656
108.289063	5288.396484
106.939453	4506.444824
105.591797	3720.988281
104.242188	3024.658691
102.892578	2324.795166
